Time,P0,P1,P2,P3,P4,P5,P6,P7,P8,P9,P10,P11,P12,P13,P14,P15,P16,P17,P18,P19,P20,P21,P22,P23,P24,P25,P26,P27,P28,P29,P30,P31,ECG,AX0,AY0,AZ0,QW0,QX0,QY0,QZ0,GX0,GY0,GZ0,AX1,AY1,AZ1,QW1,QX1,QY1,QZ1,GX1,GY1,GZ1
2022-05-23 16:22:35.144490-07:00,2166.7,686.4,1172.6,1387.5,1021.9,1256.0,1441.5,1660.6,3434.6,3428.6,1649.2,1393.0,0.0,3434.6,1194.7,1578.6,3424.9,3418.9,731.5,1369.4,913.5,550.6,1185.0,1921.3,3423.7,3423.7,1017.6,957.7,1477.3,1474.6,1227.5,1033.2,6.0,28.0,32.0,5780.0,10192.0,-8225.0,-7969.0,-71.0,-13.0,78.0,-10.0,11.0,33.0,8191.0,9209.0,-5402.0,-9346.0,-5.0,-17.0,3.0,1.0
2022-05-23 16:22:35.187111-07:00,2154.4,684.0,1172.6,1387.5,1026.3,1245.3,1440.5,1660.6,3428.6,3429.8,1649.2,1393.0,0.0,3431.0,1192.0,1578.6,3424.9,3416.5,729.9,1367.6,913.5,550.6,1186.7,1911.5,3423.7,3429.8,1017.6,962.0,1477.3,1474.6,1230.2,1029.7,9.0,-8.0,17.0,5832.0,10157.0,-8220.0,-7982.0,-53.0,31.0,32.0,-6.0,-23.0,25.0,8198.0,9198.0,-5393.0,-9357.0,-10.0,-11.0,-7.0,1.0
2022-05-23 16:22:35.234385-07:00,2154.4,684.0,1182.3,1390.3,1026.3,1245.3,1431.4,1660.6,3428.6,3429.8,1666.3,1388.5,0.0,3431.0,1189.4,1576.8,3431.0,3414.1,729.9,1367.6,914.4,550.6,1186.7,1911.5,3433.4,3421.3,1017.6,962.0,1473.6,1476.4,1230.2,1029.7,10.0,-16.0,13.0,5836.0,10157.0,-8216.0,-7982.0,8.0,-7.0,-17.0,-5.0,-17.0,21.0,8198.0,9191.0,-5389.0,-9365.0,-5.0,-13.0,15.0,1.0
2022-05-23 16:22:35.294275-07:00,2146.3,681.5,1182.3,1390.3,1025.4,1247.1,1431.4,1660.6,3418.9,3432.2,1666.3,1388.5,0.0,3428.6,1189.4,1576.8,3431.0,3414.1,727.4,1368.5,914.4,550.6,1194.7,1905.6,3433.4,3421.3,1021.9,956.0,1473.6,1476.4,1239.1,1024.5,15.0,-43.0,18.0,5838.0,10150.0,-8220.0,-7985.0,20.0,-17.0,39.0,0.0,-44.0,14.0,8209.0,9180.0,-5392.0,-9365.0,7.0,-8.0,55.0,1.0
2022-05-23 16:22:35.327358-07:00,2146.3,681.5,1172.6,1386.6,1025.4,1247.1,1443.3,1673.8,3418.9,3432.2,1691.0,1398.5,0.0,3428.6,1187.6,1574.9,3423.7,3431.0,727.4,1368.5,911.8,549.0,1194.7,1905.6,3429.8,3429.8,1021.9,956.0,1478.3,1477.3,1239.1,1024.5,35.0,42.0,22.0,5780.0,10182.0,-8238.0,-7968.0,254.0,8.0,-223.0,3.0,40.0,8.0,8200.0,9189.0,-5428.0,-9343.0,97.0,2.0,34.0,1.0
2022-05-23 16:22:35.354995-07:00,2149.3,684.8,1172.6,1386.6,1021.1,1248.8,1443.3,1673.8,3428.6,3427.4,1691.0,1398.5,0.0,3418.9,1187.6,1574.9,3423.7,3431.0,724.1,1366.6,911.8,549.0,1210.6,1921.3,3429.8,3429.8,1015.9,961.1,1478.3,1477.3,1239.1,1036.6,-1.0,19.0,12.0,5728.0,10240.0,-8205.0,-7965.0,-107.0,4.0,-21.0,-4.0,45.0,42.0,8211.0,9182.0,-5433.0,-9337.0,-70.0,-3.0,36.0,1.0
2022-05-23 16:22:35.504261-07:00,2149.3,684.8,1176.2,1376.6,1021.1,1248.8,1452.5,1706.2,3428.6,3427.4,1714.8,1395.7,0.0,3418.9,1182.3,1573.0,3418.9,3434.6,724.1,1366.6,912.7,551.4,1210.6,1921.3,3429.8,3423.7,1015.9,961.1,1479.2,1476.4,1239.1,1036.6,3.0,14.0,30.0,5787.0,10194.0,-8200.0,-7987.0,-193.0,-53.0,206.0,-4.0,0.0,49.0,8236.0,9152.0,-5427.0,-9349.0,-63.0,-28.0,31.0,1.0
2022-05-23 16:22:35.535053-07:00,2143.3,684.0,1182.3,1376.6,1029.7,1250.6,1452.5,1706.2,3418.9,3428.6,1697.6,1395.7,0.0,3431.0,1182.3,1573.0,3418.9,3434.6,724.9,1365.7,912.7,549.8,1201.8,1910.5,3429.8,3423.7,1010.8,956.8,1479.2,1473.6,1239.1,1028.8,19.0,63.0,25.0,5877.0,10111.0,-8213.0,-8012.0,-265.0,30.0,148.0,-10.0,50.0,32.0,8248.0,9130.0,-5419.0,-9364.0,-90.0,-32.0,-16.0,1.0
2022-05-23 16:22:35.535717-07:00,2143.3,684.0,1182.3,1382.1,1029.7,1245.3,1485.6,1718.6,3418.9,3428.6,1697.6,1397.6,0.0,3423.7,1185.9,1570.2,3434.6,3424.9,727.4,1365.7,912.7,549.8,1201.8,1910.5,3423.7,3428.6,1009.9,956.8,1478.3,1473.6,1239.1,1028.8,-36.0,120.0,-29.0,6039.0,10019.0,-8152.0,-8071.0,-701.0,44.0,156.0,-41.0,73.0,48.0,8298.0,9060.0,-5346.0,-9430.0,-491.0,-54.0,-66.0,1.0
2022-05-23 16:22:35.594430-07:00,2141.2,683.1,1198.2,1382.1,1020.2,1245.3,1485.6,1718.6,3432.2,3423.7,1754.1,1397.6,0.0,3423.7,1185.9,1570.2,3434.6,3424.9,727.4,1367.6,912.7,551.4,1216.0,1915.4,3423.7,3428.6,1009.9,965.4,1478.3,1484.7,1253.3,1029.7,-97.0,228.0,-55.0,6355.0,9779.0,-7922.0,-8347.0,-1982.0,-172.0,113.0,-138.0,238.0,59.0,8485.0,8834.0,-5086.0,-9619.0,-1347.0,-166.0,-170.0,1.0
2022-05-23 16:22:35.595786-07:00,2141.2,683.1,1198.2,1388.5,1020.2,1260.4,1628.4,1863.5,3432.2,3423.7,1754.1,1402.1,0.0,3429.8,1222.2,1584.2,3424.9,3434.6,726.6,1367.6,910.1,551.4,1216.0,1915.4,3434.6,3424.9,1023.7,965.4,1470.0,1484.7,1253.3,1029.7,-118.0,135.0,-139.0,7030.0,9212.0,-7429.0,-8886.0,-3204.0,-343.0,326.0,-94.0,97.0,101.0,8831.0,8332.0,-4627.0,-9981.0,-2398.0,-395.0,-148.0,1.0
2022-05-23 16:22:35.685029-07:00,2156.5,682.3,1251.5,1388.5,1026.3,1260.4,1628.4,1863.5,3428.6,3429.8,1787.8,1402.1,0.0,3429.8,1222.2,1584.2,3424.9,3434.6,726.6,1371.2,910.1,545.8,1239.1,1903.6,3434.6,3424.9,1023.7,968.8,1470.0,1504.1,1287.3,1022.8,-57.0,283.0,-146.0,7814.0,8237.0,-6717.0,-9717.0,-4386.0,-876.0,235.0,-116.0,188.0,41.0,9435.0,7449.0,-3783.0,-10470.0,-3900.0,-401.0,-241.0,1.0
2022-05-23 16:22:35.715096-07:00,2156.5,682.3,1251.5,1404.0,1025.4,1273.0,1618.1,1839.1,3428.6,3429.8,1787.8,1407.6,0.0,3424.9,1209.7,1577.7,3426.2,3417.7,723.3,1381.2,921.1,545.8,1239.1,1903.6,3434.6,3422.5,1006.5,973.1,1473.6,1504.1,1287.3,1022.8,35.0,-11.0,-115.0,8672.0,6785.0,-5570.0,-10779.0,-5326.0,-1296.0,-171.0,-12.0,30.0,-81.0,10069.0,6191.0,-2661.0,-11030.0,-4367.0,-706.0,-406.0,1.0
2022-05-23 16:22:35.774430-07:00,2127.0,671.7,1257.8,1403.0,1025.4,1273.0,1618.1,1839.1,3433.4,3428.6,1758.9,1402.1,0.0,3424.9,1209.7,1577.7,3426.2,3417.7,723.3,1381.2,945.8,552.2,1231.9,1918.3,3434.6,3422.5,1006.5,973.1,1480.1,1492.1,1279.2,1028.8,44.0,-134.0,-93.0,9186.0,5373.0,-4377.0,-11663.0,-4120.0,-891.0,-352.0,-10.0,-34.0,-114.0,10471.0,4908.0,-1556.0,-11502.0,-3709.0,-606.0,-590.0,1.0
2022-05-23 16:22:35.804407-07:00,2127.0,671.7,1257.8,1403.0,1021.9,1292.7,1602.1,1780.1,3433.4,3428.6,1758.9,1402.1,0.0,3432.2,1207.1,1573.9,3422.5,3429.8,723.3,1373.0,945.8,552.2,1231.9,1918.3,3431.0,3427.4,995.3,980.7,1480.1,1492.1,1279.2,1028.8,-11.0,0.0,-208.0,9467.0,4262.0,-3489.0,-12185.0,-3281.0,-1055.0,-176.0,-35.0,12.0,-98.0,10627.0,3818.0,-622.0,-11855.0,-3163.0,-621.0,-773.0,1.0
2022-05-23 16:22:35.894539-07:00,2146.3,668.4,1278.3,1407.6,1021.9,1292.7,1602.1,1780.1,3431.0,3431.0,1782.0,1408.5,0.0,3432.2,1207.1,1573.9,3422.5,3429.8,723.3,1373.0,953.4,551.4,1231.9,1911.5,3431.0,3427.4,995.3,980.7,1470.0,1514.3,1307.9,1020.2,21.0,-130.0,-241.0,9635.0,3048.0,-2623.0,-12626.0,-3494.0,-1051.0,-225.0,19.0,-9.0,-178.0,10649.0,2674.0,273.0,-12158.0,-3145.0,-796.0,-824.0,1.0
2022-05-23 16:22:35.895390-07:00,2146.3,668.4,1278.3,1407.6,1021.1,1305.2,1619.0,1814.9,3431.0,3431.0,1782.0,1408.5,0.0,3418.9,1302.5,1616.2,3418.9,3422.5,722.5,1371.2,953.4,551.4,1231.9,1911.5,3423.7,3429.8,986.7,973.1,1470.0,1514.3,1307.9,1020.2,54.0,-137.0,-83.0,9754.0,1880.0,-1881.0,-12893.0,-2681.0,-1145.0,29.0,84.0,-56.0,-140.0,10553.0,1723.0,888.0,-12382.0,-2115.0,-779.0,-736.0,1.0
2022-05-23 16:22:35.954313-07:00,2126.0,679.1,1296.3,1410.3,1021.1,1305.2,1619.0,1814.9,3428.6,3423.7,1851.8,1431.4,0.0,3418.9,1302.5,1616.2,3418.9,3422.5,722.5,1371.2,962.8,553.8,1218.6,1907.5,3423.7,3429.8,986.7,973.1,1485.6,1566.5,1378.5,1030.6,58.0,-37.0,-93.0,9793.0,974.0,-1331.0,-13031.0,-2130.0,-845.0,-64.0,88.0,-25.0,-49.0,10424.0,987.0,1311.0,-12533.0,-1653.0,-639.0,-612.0,1.0
2022-05-23 16:22:36.134493-07:00,2115.9,679.1,1296.3,1410.3,1027.1,1310.6,1597.4,1779.1,3431.0,3423.7,1851.8,1431.4,0.0,3420.1,1341.3,1635.0,3429.8,3429.8,724.1,1375.7,962.8,553.8,1218.6,1918.3,3434.6,3429.8,949.2,966.2,1485.6,1566.5,1378.5,1027.1,20.0,-113.0,-77.0,9772.0,218.0,-912.0,-13117.0,-1564.0,-703.0,-30.0,59.0,-59.0,-82.0,10290.0,380.0,1634.0,-12638.0,-1195.0,-514.0,-468.0,1.0
2022-05-23 16:22:36.135600-07:00,2115.9,666.0,1315.1,1411.3,1027.1,1310.6,1597.4,1772.3,3431.0,3428.6,1878.1,1433.2,0.0,3420.1,1341.3,1662.5,3422.5,3429.8,724.1,1375.7,977.3,552.2,1224.8,1918.3,3429.8,3429.8,949.2,966.2,1492.1,1610.5,1430.5,1027.1,66.0,-60.0,38.0,9732.0,-334.0,-697.0,-13157.0,-873.0,-730.0,-113.0,78.0,-53.0,-62.0,10183.0,-6.0,1788.0,-12710.0,-537.0,-402.0,-363.0,1.0
2022-05-23 16:22:36.136240-07:00,2086.6,666.0,1315.1,1411.3,1034.9,1295.4,1557.1,1772.3,3423.7,3428.6,1878.1,1433.2,0.0,3428.6,1373.0,1662.5,3422.5,3418.9,731.5,1375.7,977.3,552.2,1224.8,1922.3,3429.8,3424.9,947.5,966.2,1492.1,1610.5,1430.5,1025.4,41.0,-87.0,-19.0,9641.0,-642.0,-644.0,-13216.0,-397.0,-451.0,-230.0,67.0,-32.0,-2.0,10088.0,-184.0,1797.0,-12783.0,-130.0,-225.0,-283.0,1.0
2022-05-23 16:22:36.164358-07:00,2086.6,662.7,1389.4,1441.5,1034.9,1295.4,1557.1,1804.2,3423.7,3423.7,1865.4,1441.5,0.0,3428.6,1373.0,1657.7,3424.9,3418.9,731.5,1375.7,967.1,560.2,1231.0,1922.3,3428.6,3424.9,947.5,966.2,1511.5,1624.7,1456.2,1025.4,-1.0,-44.0,-51.0,9595.0,-837.0,-738.0,-13234.0,81.0,-489.0,2.0,51.0,-16.0,-25.0,10042.0,-240.0,1717.0,-12829.0,235.0,-120.0,-49.0,1.0
2022-05-23 16:22:36.194561-07:00,2053.4,662.7,1389.4,1441.5,1040.9,1288.2,1521.8,1804.2,3433.4,3423.7,1865.4,1441.5,0.0,3422.5,1362.1,1657.7,3424.9,3420.1,718.4,1374.8,967.1,560.2,1231.0,1920.3,3428.6,3432.2,925.4,962.8,1511.5,1624.7,1456.2,1028.0,-10.0,3.0,-69.0,9627.0,-991.0,-944.0,-13187.0,277.0,-629.0,224.0,3.0,23.0,-69.0,10068.0,-203.0,1558.0,-12830.0,349.0,-190.0,115.0,1.0
2022-05-23 16:22:36.254183-07:00,2053.4,659.5,1426.8,1446.0,1040.9,1288.2,1515.3,1788.7,3433.4,3427.4,1829.4,1416.7,0.0,3422.5,1341.3,1644.5,3424.9,3432.2,718.4,1374.8,956.0,556.2,1239.9,1920.3,3429.8,3428.6,925.4,962.8,1480.1,1616.2,1448.8,1028.0,60.0,46.0,16.0,9717.0,-1184.0,-1043.0,-13097.0,-272.0,-342.0,244.0,16.0,37.0,-78.0,10116.0,-253.0,1465.0,-12802.0,-83.0,-245.0,70.0,1.0
2022-05-23 16:22:36.344568-07:00,2048.4,667.6,1426.8,1446.0,1040.1,1289.1,1515.3,1788.7,3429.8,3427.4,1829.4,1416.7,0.0,3434.6,1341.3,1644.5,3424.9,3432.2,719.2,1373.9,956.0,556.2,1227.5,1914.4,3429.8,3428.6,919.4,965.4,1480.1,1616.2,1413.1,1027.1,205.0,-157.0,134.0,9700.0,-1155.0,-1076.0,-13109.0,631.0,322.0,-269.0,230.0,-104.0,-25.0,10132.0,-240.0,1384.0,-12798.0,603.0,104.0,81.0,1.0
2022-05-23 16:22:36.346652-07:00,2048.4,667.6,1396.7,1440.5,1040.1,1289.1,1493.0,1745.4,3429.8,3427.4,1809.0,1406.7,0.0,3434.6,1320.5,1630.3,3424.9,3427.4,719.2,1373.9,961.1,552.2,1227.5,1914.4,3423.7,3429.8,919.4,965.4,1490.3,1591.7,1413.1,1027.1,232.0,-359.0,61.0,9616.0,-278.0,-1575.0,-13168.0,3225.0,1331.0,-540.0,300.0,-193.0,-117.0,10253.0,484.0,906.0,-12738.0,2812.0,888.0,701.0,1.0
2022-05-23 16:22:36.404384-07:00,2034.4,660.3,1396.7,1440.5,1047.8,1286.4,1493.0,1745.4,3417.7,3432.2,1809.0,1406.7,0.0,3426.2,1320.5,1630.3,3424.9,3427.4,718.4,1363.0,961.1,552.2,1227.5,1903.6,3423.7,3429.8,908.4,963.7,1490.3,1591.7,1370.3,1025.4,257.0,-343.0,-219.0,9461.0,1648.0,-2708.0,-12995.0,5532.0,2394.0,-397.0,253.0,-3.0,-258.0,10417.0,1991.0,-109.0,-12488.0,4526.0,1445.0,1013.0,1.0
2022-05-23 16:22:36.464308-07:00,2034.4,660.3,1386.6,1445.1,1047.8,1286.4,1515.3,1798.4,3417.7,3432.2,1779.1,1401.2,0.0,3426.2,1281.9,1591.7,3424.9,3423.7,718.4,1363.0,954.3,549.8,1227.5,1903.6,3426.2,3431.0,908.4,963.7,1484.7,1555.3,1370.3,1025.4,151.0,-121.0,-261.0,9245.0,3854.0,-3629.0,-12447.0,4344.0,3279.0,-355.0,-1.0,100.0,-282.0,10463.0,3516.0,-1112.0,-12057.0,3561.0,1224.0,924.0,1.0
2022-05-23 16:22:36.524416-07:00,2069.5,660.3,1357.6,1445.1,1042.6,1287.3,1515.3,1798.4,3427.4,3429.8,1729.1,1401.2,0.0,3423.7,1281.9,1591.7,3424.9,3423.7,727.4,1364.8,954.3,549.8,1214.2,1897.7,3426.2,3431.0,904.2,973.9,1484.7,1533.8,1336.8,1022.8,-68.0,-13.0,-309.0,9095.0,5900.0,-3962.0,-11628.0,3417.0,3512.0,105.0,-230.0,58.0,-23.0,10498.0,4617.0,-1858.0,-11552.0,2682.0,921.0,993.0,1.0
2022-05-23 16:22:36.554298-07:00,2069.5,660.3,1357.6,1430.5,1042.6,1274.7,1569.3,1814.9,3427.4,3429.8,1729.1,1383.9,0.0,3422.5,1249.7,1586.1,3426.2,3432.2,732.3,1364.8,939.8,549.8,1214.2,1897.7,3429.8,3431.0,898.3,973.9,1477.3,1533.8,1336.8,1022.8,-135.0,-83.0,-416.0,8871.0,7502.0,-4518.0,-10633.0,4084.0,1961.0,943.0,-177.0,106.0,-52.0,10362.0,5659.0,-2691.0,-11037.0,3663.0,642.0,679.0,1.0
2022-05-23 16:22:36.644358-07:00,2113.9,659.5,1326.8,1430.5,1034.0,1274.7,1569.3,1814.9,3426.2,3423.7,1692.9,1383.9,0.0,3422.5,1249.7,1586.1,3426.2,3432.2,732.3,1362.1,939.8,559.4,1199.1,1898.7,3429.8,3431.0,898.3,964.5,1477.3,1512.5,1310.6,1022.8,10.0,149.0,-379.0,8422.0,8674.0,-5727.0,-9458.0,4614.0,835.0,1444.0,-101.0,158.0,-131.0,9851.0,6870.0,-3793.0,-10478.0,4137.0,479.0,309.0,1.0
2022-05-23 16:22:36.645782-07:00,2113.9,659.5,1326.8,1415.8,1034.0,1258.7,1586.1,1813.9,3426.2,3423.7,1692.9,1381.2,0.0,3432.2,1215.1,1572.1,3420.1,3429.8,736.5,1362.1,936.4,559.4,1199.1,1898.7,3426.2,3434.6,898.3,964.5,1474.6,1512.5,1310.6,1022.8,-20.0,239.0,-286.0,7899.0,9402.0,-6779.0,-8467.0,2941.0,295.0,978.0,-113.0,183.0,-104.0,9289.0,7795.0,-4674.0,-9977.0,2762.0,210.0,186.0,1.0
2022-05-23 16:22:36.704373-07:00,2202.4,652.2,1301.6,1415.8,1032.3,1258.7,1586.1,1813.9,3429.8,3421.3,1635.0,1381.2,0.0,3432.2,1215.1,1572.1,3420.1,3429.8,736.5,1362.1,936.4,554.6,1194.7,1898.7,3426.2,3434.6,898.3,968.8,1474.6,1502.3,1279.2,1028.0,-72.0,170.0,-107.0,7662.0,9523.0,-7311.0,-8099.0,488.0,-465.0,582.0,-116.0,98.0,16.0,9023.0,8135.0,-5099.0,-9739.0,723.0,-108.0,199.0,1.0
2022-05-23 16:22:36.824523-07:00,2202.4,652.2,1301.6,1414.0,1032.3,1248.8,1566.5,1814.9,3429.8,3421.3,1635.0,1370.3,0.0,3432.2,1181.5,1567.4,3426.2,3420.1,718.4,1362.1,926.2,554.6,1194.7,1898.7,3429.8,3439.5,907.6,968.8,1472.7,1502.3,1279.2,1028.0,-56.0,164.0,33.0,7642.0,9371.0,-7509.0,-8113.0,-78.0,-301.0,271.0,-113.0,102.0,75.0,8977.0,8120.0,-5258.0,-9709.0,101.0,-266.0,143.0,1.0
2022-05-23 16:22:36.825832-07:00,2179.9,661.1,1284.6,1400.3,1032.3,1248.8,1566.5,1814.9,3431.0,3424.9,1585.2,1357.6,0.0,3432.2,1181.5,1567.4,3426.2,3420.1,718.4,1360.3,920.3,557.0,1187.6,1888.9,3429.8,3439.5,907.6,970.5,1465.4,1496.7,1263.1,1022.8,-62.0,203.0,78.0,7635.0,9259.0,-7599.0,-8165.0,-27.0,-338.0,140.0,-49.0,148.0,144.0,8948.0,8060.0,-5347.0,-9738.0,45.0,-215.0,20.0,1.0
2022-05-23 16:22:36.884426-07:00,2179.9,661.1,1284.6,1400.3,1025.4,1252.4,1564.6,1787.8,3431.0,3424.9,1585.2,1357.6,0.0,3433.4,1170.9,1559.0,3422.5,3417.7,732.3,1356.7,920.3,557.0,1187.6,1888.9,3429.8,3427.4,905.9,961.1,1465.4,1496.7,1263.1,1022.8,56.0,68.0,81.0,7616.0,9161.0,-7666.0,-8230.0,-34.0,-219.0,52.0,15.0,55.0,53.0,8918.0,8025.0,-5381.0,-9775.0,25.0,-119.0,-46.0,1.0
2022-05-23 16:22:37.004089-07:00,2163.6,651.4,1258.7,1394.8,1025.4,1252.4,1564.6,1787.8,3431.0,3423.7,1579.6,1355.8,0.0,3433.4,1170.9,1559.0,3422.5,3417.7,732.3,1356.7,921.1,553.0,1177.0,1888.9,3429.8,3427.4,905.9,961.1,1462.6,1487.5,1258.7,1022.8,56.0,-12.0,71.0,7594.0,9143.0,-7702.0,-8237.0,91.0,-11.0,19.0,46.0,-24.0,13.0,8881.0,8029.0,-5405.0,-9792.0,92.0,-36.0,-43.0,1.0
2022-05-23 16:22:37.005230-07:00,2163.6,651.4,1258.7,1394.8,1024.5,1252.4,1545.0,1762.7,3431.0,3423.7,1579.6,1355.8,0.0,3429.8,1163.0,1552.5,3418.9,3429.8,729.9,1350.3,921.1,553.0,1177.0,1888.9,3431.0,3428.6,890.7,965.4,1462.6,1487.5,1258.7,1022.8,32.0,-82.0,31.0,7562.0,9179.0,-7736.0,-8195.0,218.0,43.0,32.0,2.0,-65.0,-22.0,8839.0,8077.0,-5438.0,-9773.0,218.0,37.0,-20.0,1.0
2022-05-23 16:22:37.006438-07:00,2164.6,641.6,1240.8,1392.1,1024.5,1252.4,1545.0,1762.7,3429.8,3433.4,1574.9,1356.7,0.0,3429.8,1163.0,1552.5,3418.9,3429.8,729.9,1350.3,915.2,551.4,1184.1,1907.5,3431.0,3428.6,890.7,965.4,1452.5,1482.9,1255.1,1023.7,0.0,-40.0,-11.0,7562.0,9196.0,-7782.0,-8132.0,40.0,43.0,163.0,-9.0,-37.0,-11.0,8820.0,8113.0,-5485.0,-9733.0,91.0,4.0,98.0,1.0
2022-05-23 16:22:37.094491-07:00,2147.3,641.6,1240.8,1392.1,1014.2,1244.4,1521.8,1748.3,3423.7,3433.4,1574.9,1356.7,0.0,3421.3,1155.0,1548.7,3427.4,3426.2,729.9,1355.8,915.2,551.4,1184.1,1886.9,3434.6,3434.6,892.4,968.8,1452.5,1482.9,1255.1,1024.5,39.0,11.0,18.0,7613.0,9138.0,-7817.0,-8116.0,-113.0,-62.0,180.0,23.0,0.0,-2.0,8848.0,8101.0,-5509.0,-9705.0,-20.0,29.0,99.0,1.0
2022-05-23 16:22:37.154278-07:00,2147.3,642.4,1248.8,1390.3,1014.2,1244.4,1521.8,1745.4,3423.7,3421.3,1566.5,1352.1,0.0,3421.3,1155.0,1538.5,3423.7,3426.2,729.9,1355.8,911.8,553.0,1176.2,1886.9,3426.2,3434.6,892.4,968.8,1457.1,1474.6,1248.8,1024.5,64.0,32.0,25.0,7612.0,9107.0,-7863.0,-8107.0,155.0,-49.0,18.0,21.0,3.0,-19.0,8863.0,8129.0,-5509.0,-9667.0,84.0,122.0,-6.0,1.0
2022-05-23 16:22:37.155344-07:00,2147.3,642.4,1248.8,1390.3,1020.2,1241.7,1516.2,1745.4,3427.4,3421.3,1566.5,1352.1,0.0,3418.9,1149.8,1538.5,3423.7,3423.7,734.0,1351.2,911.8,553.0,1176.2,1885.0,3426.2,3437.0,894.1,962.0,1457.1,1474.6,1248.8,1022.8,36.0,-12.0,2.0,7578.0,9136.0,-7874.0,-8096.0,29.0,26.0,-57.0,-22.0,12.0,-30.0,8862.0,8179.0,-5485.0,-9640.0,23.0,131.0,-28.0,1.0
2022-05-23 16:22:37.334416-07:00,2147.3,638.4,1242.6,1390.3,1020.2,1241.7,1516.2,1738.7,3427.4,3428.6,1568.3,1349.4,0.0,3418.9,1149.8,1545.0,3427.4,3423.7,734.0,1351.2,911.8,553.8,1176.2,1885.0,3432.2,3437.0,894.1,962.0,1448.8,1473.6,1250.6,1022.8,-24.0,-33.0,-24.0,7616.0,9157.0,-7851.0,-8059.0,23.0,117.0,93.0,-32.0,-20.0,15.0,8882.0,8204.0,-5474.0,-9606.0,75.0,81.0,64.0,1.0
2022-05-23 16:22:37.337136-07:00,2132.1,638.4,1242.6,1390.3,1029.7,1232.8,1509.7,1738.7,3423.7,3428.6,1568.3,1349.4,0.0,3432.2,1146.3,1545.0,3427.4,3423.7,732.3,1339.5,911.8,553.8,1176.2,1885.0,3432.2,3432.2,895.7,978.2,1448.8,1473.6,1250.6,1029.7,11.0,44.0,3.0,7631.0,9141.0,-7911.0,-8004.0,70.0,-33.0,188.0,-15.0,24.0,8.0,8872.0,8240.0,-5514.0,-9562.0,123.0,18.0,52.0,1.0
2022-05-23 16:22:37.337798-07:00,2132.1,639.2,1241.7,1386.6,1029.7,1232.8,1509.7,1726.3,3423.7,3431.0,1557.1,1346.7,0.0,3432.2,1146.3,1545.9,3429.8,3423.7,732.3,1339.5,919.4,558.6,1172.6,1885.0,3427.4,3432.2,895.7,978.2,1448.8,1474.6,1249.7,1029.7,8.0,19.0,2.0,7643.0,9112.0,-7945.0,-7992.0,-41.0,-59.0,72.0,-16.0,9.0,7.0,8872.0,8239.0,-5536.0,-9549.0,-2.0,-33.0,41.0,1.0
2022-05-23 16:22:37.364400-07:00,2134.1,634.3,1241.7,1386.6,1027.1,1233.7,1508.8,1726.3,3431.0,3429.8,1557.1,1346.7,0.0,3429.8,1146.3,1545.9,3429.8,3421.3,729.0,1349.4,919.4,558.6,1165.6,1882.0,3427.4,3418.9,884.8,964.5,1448.8,1474.6,1242.6,1026.3,-4.0,25.0,3.0,7643.0,9070.0,-7976.0,-8009.0,-35.0,-161.0,80.0,-30.0,13.0,15.0,8869.0,8220.0,-5547.0,-9563.0,-8.0,-70.0,11.0,1.0
2022-05-23 16:22:37.394458-07:00,2134.1,634.3,1230.2,1389.4,1027.1,1233.7,1499.5,1733.9,3431.0,3429.8,1556.2,1351.2,0.0,3429.8,1144.5,1539.4,3416.5,3429.8,729.0,1349.4,910.1,554.6,1165.6,1882.0,3416.5,3428.6,884.8,964.5,1463.5,1473.6,1242.6,1026.3,2.0,-3.0,23.0,7650.0,9000.0,-8005.0,-8051.0,-142.0,-134.0,53.0,-20.0,-17.0,3.0,8869.0,8189.0,-5539.0,-9593.0,-85.0,-63.0,-12.0,1.0
2022-05-23 16:22:37.454566-07:00,2131.1,642.4,1230.2,1389.4,1019.4,1231.9,1499.5,1733.9,3424.9,3428.6,1556.2,1351.2,0.0,3433.4,1144.5,1539.4,3416.5,3429.8,729.0,1349.4,910.1,554.6,1168.2,1880.1,3416.5,3428.6,908.4,967.9,1463.5,1473.6,1239.9,1018.5,32.0,-12.0,0.0,7646.0,8960.0,-8021.0,-8085.0,48.0,-56.0,-2.0,-14.0,-6.0,-21.0,8858.0,8183.0,-5537.0,-9610.0,25.0,-31.0,-25.0,1.0
2022-05-23 16:22:37.514727-07:00,2131.1,642.4,1239.9,1390.3,1019.4,1231.9,1493.0,1723.4,3424.9,3428.6,1557.1,1346.7,0.0,3433.4,1145.4,1534.8,3418.9,3418.9,729.0,1349.4,916.9,557.8,1168.2,1880.1,3434.6,3418.9,908.4,967.9,1456.2,1474.6,1239.9,1018.5,36.0,-24.0,-15.0,7629.0,8960.0,-8052.0,-8070.0,104.0,-29.0,29.0,0.0,-4.0,-25.0,8829.0,8202.0,-5560.0,-9607.0,119.0,-23.0,-16.0,1.0
2022-05-23 16:22:37.574579-07:00,2137.2,641.6,1239.9,1390.3,1014.2,1240.8,1493.0,1723.4,3431.0,3432.2,1557.1,1346.7,0.0,3433.4,1145.4,1534.8,3418.9,3418.9,727.4,1344.9,916.9,557.8,1164.7,1881.1,3434.6,3418.9,888.2,962.8,1456.2,1474.6,1245.3,1018.5,30.0,-29.0,-3.0,7616.0,8958.0,-8102.0,-8034.0,100.0,-18.0,66.0,-3.0,-25.0,-21.0,8794.0,8228.0,-5600.0,-9594.0,143.0,-29.0,-3.0,1.0
2022-05-23 16:22:37.604312-07:00,2137.2,641.6,1223.9,1393.9,1014.2,1226.6,1483.8,1711.0,3431.0,3432.2,1549.7,1344.0,0.0,3428.6,1140.1,1539.4,3422.5,3431.0,725.8,1344.9,912.7,549.0,1164.7,1881.1,3427.4,3431.0,885.6,962.8,1452.5,1469.0,1245.3,1018.5,24.0,1.0,0.0,7604.0,8962.0,-8147.0,-7995.0,68.0,-31.0,66.0,0.0,3.0,3.0,8761.0,8251.0,-5641.0,-9580.0,97.0,-39.0,10.0,1.0
2022-05-23 16:22:37.694632-07:00,2125.0,639.2,1227.5,1393.9,1025.4,1226.6,1483.8,1711.0,3421.3,3429.8,1550.6,1344.0,0.0,3428.6,1140.1,1539.4,3422.5,3431.0,725.8,1346.7,912.7,554.6,1165.6,1879.1,3427.4,3431.0,885.6,956.0,1452.5,1476.4,1242.6,1021.9,17.0,4.0,22.0,7607.0,8941.0,-8181.0,-7982.0,27.0,-48.0,54.0,0.0,0.0,10.0,8744.0,8250.0,-5672.0,-9578.0,58.0,-55.0,18.0,1.0
2022-05-23 16:22:37.695636-07:00,2125.0,639.2,1227.5,1385.7,1025.4,1226.6,1489.3,1718.6,3421.3,3429.8,1550.6,1344.9,0.0,3422.5,1137.5,1535.7,3424.9,3412.9,725.8,1346.7,909.3,554.6,1165.6,1879.1,3427.4,3418.9,893.2,956.0,1447.0,1476.4,1242.6,1021.9,0.0,19.0,40.0,7616.0,8910.0,-8200.0,-7988.0,-57.0,-51.0,53.0,-14.0,3.0,29.0,8740.0,8231.0,-5692.0,-9587.0,-11.0,-56.0,32.0,1.0
2022-05-23 16:22:37.784349-07:00,2120.9,638.4,1239.1,1385.7,1015.9,1226.6,1489.3,1718.6,3429.8,3418.9,1553.4,1344.9,0.0,3422.5,1137.5,1535.7,3424.9,3412.9,725.8,1339.5,909.3,555.4,1161.2,1871.3,3427.4,3418.9,893.2,958.5,1447.0,1469.0,1234.6,1017.6,4.0,16.0,26.0,7639.0,8875.0,-8200.0,-8004.0,-8.0,-30.0,24.0,-6.0,3.0,19.0,8747.0,8213.0,-5696.0,-9593.0,12.0,-8.0,16.0,1.0
2022-05-23 16:22:37.814975-07:00,2120.9,638.4,1239.1,1390.3,1015.9,1226.6,1478.3,1711.0,3429.8,3418.9,1553.4,1340.4,0.0,3416.5,1140.1,1529.2,3426.2,3429.8,726.6,1339.5,905.9,555.4,1161.2,1871.3,3429.8,3424.9,893.2,958.5,1449.7,1469.0,1234.6,1017.6,13.0,25.0,9.0,7637.0,8868.0,-8211.0,-8002.0,37.0,0.0,-2.0,-10.0,16.0,9.0,8742.0,8222.0,-5702.0,-9587.0,29.0,17.0,-8.0,1.0
2022-05-23 16:22:37.874387-07:00,2128.0,642.4,1221.3,1390.3,1009.9,1226.6,1478.3,1711.0,3427.4,3423.7,1545.0,1340.4,0.0,3416.5,1140.1,1529.2,3426.2,3429.8,726.6,1339.5,905.9,549.8,1163.0,1879.1,3429.8,3424.9,893.2,962.0,1449.7,1467.2,1239.1,1015.9,3.0,1.0,-6.0,7639.0,8869.0,-8211.0,-8000.0,-21.0,13.0,-6.0,-17.0,2.0,3.0,8740.0,8225.0,-5700.0,-9587.0,-11.0,-3.0,-11.0,1.0
2022-05-23 16:22:37.905097-07:00,2128.0,642.4,1221.3,1388.5,1015.1,1230.2,1470.0,1707.2,3427.4,3423.7,1545.0,1343.1,0.0,3424.9,1131.4,1534.8,3418.9,3418.9,727.4,1344.9,909.3,549.8,1163.0,1879.1,3427.4,3426.2,884.8,961.1,1449.7,1467.2,1239.1,1015.9,13.0,2.0,-3.0,7638.0,8866.0,-8210.0,-8005.0,-10.0,-48.0,-13.0,-12.0,3.0,5.0,8732.0,8225.0,-5696.0,-9597.0,-7.0,-21.0,-22.0,1.0
2022-05-23 16:22:37.934888-07:00,2117.9,637.6,1219.5,1390.3,1015.1,1230.2,1470.0,1707.2,3428.6,3426.2,1541.3,1344.0,0.0,3424.9,1131.4,1534.8,3418.9,3418.9,727.4,1344.9,909.3,553.0,1162.1,1872.3,3427.4,3426.2,884.8,961.1,1452.5,1460.8,1234.6,1021.9,1.0,8.0,7.0,7639.0,8849.0,-8210.0,-8023.0,-90.0,-39.0,5.0,-11.0,9.0,12.0,8732.0,8208.0,-5686.0,-9617.0,-75.0,-40.0,-14.0,1.0
2022-05-23 16:22:37.994487-07:00,2117.9,637.6,1219.5,1390.3,1013.3,1218.6,1464.4,1696.7,3428.6,3426.2,1541.3,1344.0,0.0,3417.7,1139.2,1532.9,3429.8,3416.5,724.9,1343.1,909.3,553.0,1162.1,1872.3,3427.4,3432.2,892.4,964.5,1452.5,1460.8,1234.6,1021.9,-14.0,48.0,13.0,7665.0,8805.0,-8199.0,-8058.0,-138.0,-54.0,53.0,-20.0,40.0,43.0,8740.0,8180.0,-5670.0,-9643.0,-93.0,-51.0,-9.0,1.0
2022-05-23 16:22:38.054409-07:00,2114.9,626.2,1226.6,1384.8,1013.3,1218.6,1464.4,1696.7,3426.2,3424.9,1536.6,1343.1,0.0,3417.7,1139.2,1532.9,3429.8,3416.5,724.9,1343.1,907.6,549.8,1163.0,1875.2,3427.4,3432.2,892.4,964.5,1447.9,1462.6,1239.1,1017.6,-7.0,224.0,17.0,7732.0,8707.0,-8189.0,-8110.0,-398.0,-121.0,170.0,-42.0,163.0,67.0,8788.0,8111.0,-5595.0,-9702.0,-582.0,-21.0,-70.0,1.0
2022-05-23 16:22:38.114305-07:00,2114.9,626.2,1226.6,1384.8,1015.9,1231.0,1462.6,1695.7,3426.2,3424.9,1536.6,1343.1,0.0,3429.8,1137.5,1534.8,3429.8,3426.2,722.5,1352.1,907.6,549.8,1163.0,1875.2,3432.2,3423.7,905.0,967.9,1447.9,1462.6,1239.1,1017.6,-50.0,337.0,-54.0,7978.0,8426.0,-7949.0,-8402.0,-1872.0,-215.0,-292.0,-77.0,184.0,62.0,9047.0,7768.0,-5206.0,-9957.0,-2033.0,-83.0,-212.0,1.0
2022-05-23 16:22:38.175225-07:00,2128.0,629.5,1229.3,1385.7,1015.9,1231.0,1462.6,1682.4,3428.6,3422.5,1553.4,1344.0,0.0,3429.8,1137.5,1536.6,3423.7,3426.2,722.5,1352.1,911.0,555.4,1178.8,1868.4,3428.6,3423.7,905.0,967.9,1453.4,1494.0,1241.7,1019.4,-14.0,368.0,-222.0,8300.0,7912.0,-7256.0,-9182.0,-3437.0,-462.0,-996.0,-131.0,311.0,-31.0,9561.0,6982.0,-4296.0,-10479.0,-3984.0,-259.0,-486.0,1.0
2022-05-23 16:22:38.234400-07:00,2098.7,629.5,1229.3,1385.7,1005.6,1220.4,1476.4,1682.4,3423.7,3422.5,1553.4,1344.0,0.0,3424.9,1165.6,1536.6,3423.7,3416.5,724.9,1353.1,911.0,555.4,1178.8,1877.2,3428.6,3428.6,903.4,964.5,1453.4,1494.0,1241.7,1022.8,-61.0,78.0,-338.0,8858.0,6844.0,-5953.0,-10378.0,-5701.0,-834.0,-943.0,-151.0,267.0,-108.0,10148.0,5663.0,-2957.0,-11165.0,-5092.0,-606.0,-653.0,1.0
2022-05-23 16:22:38.235471-07:00,2098.7,637.6,1269.4,1400.3,1005.6,1220.4,1476.4,1689.1,3423.7,3429.8,1620.9,1347.6,0.0,3424.9,1165.6,1541.3,3414.1,3416.5,724.9,1353.1,916.9,553.8,1201.8,1877.2,3437.0,3428.6,903.4,964.5,1440.5,1482.9,1266.7,1022.8,-23.0,-300.0,-201.0,9509.0,5043.0,-4446.0,-11525.0,-5808.0,-1705.0,-110.0,-71.0,-99.0,-190.0,10569.0,4136.0,-1570.0,-11711.0,-4582.0,-617.0,-656.0,1.0
2022-05-23 16:22:38.294426-07:00,2077.5,637.6,1269.4,1400.3,1010.8,1226.6,1527.3,1689.1,3433.4,3429.8,1620.9,1347.6,0.0,3429.8,1189.4,1541.3,3414.1,3429.8,718.4,1363.9,916.9,553.8,1201.8,1880.1,3437.0,3427.4,883.1,959.4,1440.5,1482.9,1266.7,1039.2,78.0,-220.0,-81.0,9885.0,3325.0,-3492.0,-12144.0,-3558.0,-1538.0,151.0,-1.0,-153.0,-256.0,10642.0,3020.0,-581.0,-12072.0,-2813.0,-518.0,-794.0,1.0
2022-05-23 16:22:38.354158-07:00,2077.5,632.7,1267.6,1404.9,1010.8,1226.6,1527.3,1665.3,3433.4,3429.8,1637.9,1352.1,0.0,3429.8,1189.4,1571.1,3422.5,3429.8,718.4,1363.9,952.6,552.2,1211.5,1880.1,3424.9,3427.4,883.1,959.4,1448.8,1496.7,1281.0,1039.2,6.0,-55.0,-155.0,9934.0,2434.0,-2866.0,-12475.0,-2399.0,-375.0,-392.0,14.0,33.0,-162.0,10537.0,2252.0,28.0,-12342.0,-2106.0,-515.0,-737.0,1.0
2022-05-23 16:22:38.384755-07:00,2035.4,641.6,1267.6,1404.9,1017.6,1235.5,1496.7,1665.3,3422.5,3422.5,1637.9,1352.1,0.0,3434.6,1266.7,1571.1,3422.5,3429.8,719.2,1368.5,952.6,552.2,1243.5,1886.0,3424.9,3424.9,880.6,962.0,1448.8,1496.7,1429.5,1025.4,-20.0,-246.0,-228.0,10018.0,1450.0,-2087.0,-12713.0,-3036.0,-1140.0,315.0,17.0,11.0,-60.0,10435.0,1411.0,647.0,-12536.0,-2251.0,-649.0,-616.0,1.0
2022-05-23 16:22:38.444460-07:00,2035.4,641.6,1397.6,1450.6,1017.6,1235.5,1489.3,1702.4,3422.5,3422.5,1811.9,1407.6,0.0,3434.6,1382.1,1650.2,3422.5,3422.5,719.2,1368.5,942.4,560.2,1243.5,1886.0,3423.7,3429.8,880.6,962.0,1478.3,1605.8,1429.5,1025.4,-3.0,-121.0,-192.0,10339.0,7.0,-1441.0,-12628.0,-3579.0,-1729.0,1350.0,13.0,92.0,-134.0,10353.0,609.0,1188.0,-12628.0,-2186.0,-653.0,-361.0,1.0
2022-05-23 16:22:38.504437-07:00,2000.5,634.3,1397.6,1450.6,1023.7,1242.6,1489.3,1702.4,3429.8,3428.6,1811.9,1407.6,0.0,3428.6,1382.1,1650.2,3422.5,3422.5,718.4,1393.0,942.4,560.2,1247.1,1905.6,3423.7,3429.8,869.6,957.7,1478.3,1605.8,1496.7,1022.8,-1.0,-137.0,-150.0,10728.0,-1635.0,-827.0,-12247.0,-3068.0,-2042.0,1627.0,51.0,-57.0,-165.0,10290.0,-202.0,1670.0,-12638.0,-1768.0,-742.0,-267.0,1.0
2022-05-23 16:22:38.565020-07:00,2000.5,634.3,1698.6,1605.8,1023.7,1242.6,1490.3,1780.1,3429.8,3428.6,1785.8,1391.2,0.0,3428.6,1365.7,1649.2,3417.7,3431.0,718.4,1393.0,1013.3,561.8,1247.1,1905.6,3420.1,3431.0,869.6,957.7,1491.2,1663.4,1496.7,1022.8,115.0,-21.0,63.0,10953.0,-2937.0,-439.0,-11817.0,-2252.0,-1284.0,975.0,141.0,2.0,-140.0,10208.0,-890.0,1937.0,-12637.0,-1364.0,-835.0,-327.0,1.0
2022-05-23 16:22:38.594478-07:00,1968.7,640.0,1698.6,1605.8,1034.0,1249.7,1490.3,1780.1,3426.2,3422.5,1785.8,1391.2,0.0,3420.1,1365.7,1649.2,3417.7,3431.0,721.6,1443.3,1013.3,561.8,1239.1,1892.8,3420.1,3431.0,855.3,958.5,1491.2,1663.4,1490.3,1028.0,139.0,-29.0,80.0,10948.0,-3600.0,-41.0,-11646.0,-1304.0,-182.0,209.0,131.0,60.0,46.0,10111.0,-1365.0,2082.0,-12649.0,-996.0,-635.0,-421.0,1.0
2022-05-23 16:22:38.654433-07:00,1968.7,640.0,1694.8,1633.1,1034.0,1249.7,1451.6,1710.0,3426.2,3422.5,1760.8,1378.5,0.0,3420.1,1422.2,1675.7,3429.8,3429.8,721.6,1443.3,1050.4,566.6,1239.1,1892.8,3424.9,3433.4,855.3,958.5,1505.1,1671.9,1490.3,1028.0,30.0,-59.0,-43.0,10898.0,-4024.0,311.0,-11549.0,-1197.0,-357.0,287.0,59.0,0.0,59.0,9968.0,-1812.0,2239.0,-12680.0,-791.0,-367.0,-352.0,1.0
2022-05-23 16:22:38.684906-07:00,1957.8,629.5,1743.5,1633.1,1034.0,1250.6,1451.6,1710.0,3423.7,3429.8,1815.8,1378.5,0.0,3427.4,1422.2,1675.7,3429.8,3429.8,720.0,1459.8,1050.4,561.8,1243.5,1914.4,3424.9,3433.4,858.7,955.1,1505.1,1773.3,1585.2,1014.2,-69.0,12.0,-29.0,10879.0,-4439.0,458.0,-11409.0,-801.0,-543.0,250.0,-38.0,47.0,-37.0,9851.0,-2070.0,2336.0,-12715.0,-327.0,-266.0,-261.0,1.0
2022-05-23 16:22:38.745012-07:00,1957.8,629.5,1743.5,1680.5,1034.0,1238.2,1422.2,1628.4,3423.7,3429.8,1815.8,1413.1,0.0,3416.5,1435.0,1719.6,3429.8,3424.9,731.5,1459.8,1062.5,561.8,1243.5,1914.4,3427.4,3439.5,851.1,955.1,1522.7,1773.3,1585.2,1014.2,-84.0,-39.0,-53.0,10886.0,-4854.0,613.0,-11225.0,-928.0,-593.0,468.0,-20.0,12.0,-58.0,9771.0,-2307.0,2371.0,-12728.0,-548.0,-438.0,-167.0,1.0
2022-05-23 16:22:38.804877-07:00,1960.8,631.9,1736.8,1680.5,1028.8,1238.2,1422.2,1628.4,3431.0,3426.2,1851.8,1413.1,0.0,3416.5,1435.0,1719.6,3429.8,3424.9,731.5,1478.3,1062.5,559.4,1231.0,1922.3,3427.4,3439.5,851.1,955.1,1522.7,1808.1,1617.1,1019.4,-67.0,-53.0,10.0,10918.0,-5297.0,757.0,-10982.0,-750.0,-649.0,396.0,7.0,-71.0,-9.0,9726.0,-2579.0,2421.0,-12701.0,-292.0,-409.0,-57.0,1.0
2022-05-23 16:22:38.834444-07:00,1960.8,631.9,1736.8,1681.4,1028.8,1244.4,1418.6,1603.0,3431.0,3426.2,1851.8,1419.5,0.0,3421.3,1490.3,1767.5,3427.4,3416.5,732.3,1478.3,1069.5,559.4,1231.0,1922.3,3432.2,3423.7,852.8,955.1,1533.8,1808.1,1617.1,1019.4,26.0,-26.0,41.0,10942.0,-5545.0,770.0,-10834.0,-169.0,-387.0,108.0,56.0,-30.0,39.0,9735.0,-2756.0,2376.0,-12666.0,66.0,-345.0,37.0,1.0
2022-05-23 16:22:38.894438-07:00,1950.9,628.6,1831.3,1681.4,1047.0,1244.4,1418.6,1603.0,3423.7,3416.5,1951.9,1419.5,0.0,3421.3,1490.3,1767.5,3427.4,3416.5,732.3,1485.6,1069.5,560.2,1216.8,1937.1,3432.2,3423.7,852.8,961.1,1533.8,1897.7,1695.7,1014.2,36.0,-34.0,-23.0,10944.0,-5597.0,624.0,-10814.0,261.0,-289.0,-78.0,35.0,80.0,18.0,9783.0,-2793.0,2231.0,-12647.0,330.0,-172.0,73.0,1.0
2022-05-23 16:22:38.984383-07:00,1950.9,628.6,1831.3,1737.8,1072.1,1252.4,1435.0,1616.2,3423.7,3416.5,1951.9,1492.1,0.0,3429.8,1555.3,1878.1,3428.6,3418.9,725.8,1481.9,1071.2,560.2,1216.8,1937.1,3429.8,3427.4,853.7,965.4,1545.0,1897.7,1695.7,1014.2,19.0,47.0,-17.0,10955.0,-5678.0,555.0,-10765.0,-120.0,-241.0,26.0,9.0,40.0,3.0,9832.0,-2794.0,2122.0,-12628.0,116.0,-181.0,35.0,1.0
2022-05-23 16:22:38.985504-07:00,1958.8,633.5,1859.6,1807.1,1072.1,1252.4,1435.0,1616.2,3423.7,3439.5,2075.5,1545.0,0.0,3429.8,1555.3,1878.1,3428.6,3418.9,725.8,1481.9,1063.4,557.0,1216.8,1980.6,3429.8,3427.4,853.7,965.4,1563.7,1996.5,1774.3,1016.8,29.0,35.0,-1.0,10976.0,-5642.0,475.0,-10766.0,341.0,50.0,-80.0,10.0,46.0,3.0,9871.0,-2792.0,2032.0,-12612.0,240.0,-57.0,78.0,1.0
2022-05-23 16:22:39.045088-07:00,1958.8,633.5,1859.6,1807.1,1101.7,1262.2,1519.9,1643.5,3423.7,3439.5,2075.5,1545.0,1570.2,3426.2,1588.9,1991.5,3409.3,3421.3,729.9,1482.9,1063.4,557.0,1216.8,1980.6,3420.1,3428.6,865.4,963.7,1563.7,1996.5,1774.3,1016.8,-1.0,4.0,28.0,10983.0,-5517.0,380.0,-10827.0,456.0,114.0,-198.0,-3.0,29.0,23.0,9914.0,-2728.0,1921.0,-12610.0,385.0,-17.0,65.0,1.0
2022-05-23 16:22:39.104982-07:00,2007.4,632.7,1854.7,1881.1,1101.7,1262.2,1519.9,1643.5,3423.7,3427.4,2143.3,1569.3,1570.2,3426.2,1588.9,1991.5,3409.3,3421.3,729.9,1482.9,1062.5,554.6,1224.8,1990.5,3420.1,3428.6,865.4,963.7,1576.8,2080.6,1821.6,1017.6,38.0,80.0,-14.0,10990.0,-5284.0,236.0,-10940.0,433.0,183.0,-331.0,3.0,90.0,63.0,9970.0,-2592.0,1787.0,-12614.0,374.0,58.0,4.0,1.0
2022-05-23 16:22:39.134562-07:00,2007.4,632.7,1854.7,1881.1,1130.5,1280.1,1569.3,1653.9,3423.7,3427.4,2143.3,1569.3,0.0,3426.2,1585.2,2089.6,3423.7,3420.1,726.6,1492.1,1062.5,554.6,1224.8,1990.5,3427.4,3424.9,864.6,973.9,1576.8,2080.6,1821.6,1017.6,-34.0,-38.0,-12.0,10951.0,-5285.0,116.0,-10980.0,268.0,-342.0,-131.0,-2.0,-16.0,23.0,9994.0,-2491.0,1670.0,-12632.0,486.0,0.0,76.0,1.0
2022-05-23 16:22:39.194458-07:00,2055.4,638.4,1826.5,1878.1,1130.5,1280.1,1569.3,1618.1,3424.9,3432.2,2120.9,1561.8,0.0,3426.2,1585.2,2090.6,3433.4,3420.1,726.6,1492.1,1060.8,557.8,1223.9,2075.5,3429.8,3424.9,864.6,973.9,1610.5,2091.6,1806.1,1013.3,18.0,-61.0,102.0,10927.0,-5224.0,-73.0,-11033.0,614.0,145.0,-286.0,30.0,35.0,-53.0,10042.0,-2348.0,1493.0,-12643.0,534.0,67.0,38.0,1.0
2022-05-23 16:22:39.254332-07:00,2061.5,638.4,1826.5,1878.1,1200.0,1288.2,1547.8,1618.1,3429.8,3432.2,2120.9,1561.8,0.0,3428.6,1558.1,2090.6,3433.4,3427.4,725.8,1507.8,1060.8,557.8,1223.9,2184.0,3429.8,3429.8,862.1,973.1,1610.5,2091.6,1806.1,1021.9,-2.0,-5.0,-23.0,10911.0,-4977.0,-26.0,-11163.0,-2.0,581.0,-126.0,-11.0,7.0,33.0,10057.0,-2250.0,1456.0,-12653.0,-108.0,113.0,11.0,1.0
2022-05-23 16:22:39.284580-07:00,2061.5,638.4,1805.2,1893.8,1200.0,1288.2,1547.8,1595.5,3429.8,3429.8,2189.1,1611.5,0.0,3428.6,1558.1,2132.1,3429.8,3427.4,725.8,1507.8,1051.3,557.0,1217.7,2184.0,3428.6,3429.8,862.1,973.1,1623.7,2120.9,1811.0,1021.9,-17.0,32.0,-9.0,10890.0,-4803.0,-52.0,-11260.0,382.0,221.0,-242.0,9.0,41.0,-22.0,10079.0,-2194.0,1446.0,-12647.0,277.0,47.0,72.0,1.0
2022-05-23 16:22:39.344719-07:00,2282.8,638.4,1805.2,1893.8,1296.3,1283.7,1532.0,1595.5,3426.2,3429.8,2189.1,1611.5,0.0,3426.2,1532.0,2132.1,3429.8,3424.9,725.8,1505.1,1051.3,557.0,1217.7,2358.8,3428.6,3418.9,869.6,962.0,1623.7,2120.9,1811.0,1015.1,-20.0,50.0,-45.0,10814.0,-4627.0,-55.0,-11406.0,148.0,427.0,-381.0,10.0,50.0,-13.0,10102.0,-2146.0,1401.0,-12642.0,52.0,-19.0,18.0,1.0
2022-05-23 16:22:39.404369-07:00,2282.8,724.9,1791.6,1900.7,1296.3,1283.7,1532.0,1603.0,3426.2,3418.9,2216.8,1669.1,0.0,3426.2,1532.0,2119.9,3418.9,3424.9,725.8,1505.1,1048.7,557.8,1226.6,2358.8,3428.6,3418.9,869.6,962.0,1690.0,2091.6,1782.0,1015.1,49.0,-14.0,-2.0,10762.0,-4415.0,-27.0,-11538.0,324.0,513.0,-210.0,59.0,46.0,4.0,10122.0,-2129.0,1376.0,-12631.0,0.0,99.0,106.0,1.0
2022-05-23 16:22:39.434329-07:00,2274.5,724.9,1791.6,1900.7,1409.4,1292.7,1533.8,1603.0,3428.6,3418.9,2216.8,1669.1,0.0,3418.9,1517.1,2119.9,3418.9,3429.8,724.1,1495.8,1048.7,557.8,1226.6,2391.3,3428.6,3429.8,863.7,971.3,1690.0,2091.6,1782.0,1018.5,56.0,-50.0,19.0,10732.0,-4203.0,-28.0,-11645.0,318.0,348.0,-194.0,72.0,21.0,42.0,10150.0,-2073.0,1405.0,-12615.0,113.0,192.0,117.0,1.0
2022-05-23 16:22:39.494412-07:00,2274.5,754.6,1773.3,1936.1,1409.4,1292.7,1522.7,1622.8,3428.6,3426.2,2217.8,1684.3,0.0,3418.9,1528.3,2119.9,3420.1,3418.9,724.1,1495.8,1043.5,549.8,1222.2,2391.3,3421.3,3424.9,863.7,971.3,1693.8,2069.5,1774.3,1018.5,48.0,-101.0,27.0,10704.0,-3913.0,-29.0,-11771.0,595.0,668.0,-228.0,67.0,-12.0,27.0,10187.0,-1944.0,1437.0,-12602.0,213.0,320.0,170.0,1.0
2022-05-23 16:22:39.554286-07:00,2259.0,740.6,1773.3,1936.1,1503.2,1296.3,1522.7,1622.8,3418.9,3423.7,2217.8,1684.3,0.0,3421.3,1528.3,2119.9,3420.1,3418.9,724.1,1489.3,1043.5,549.8,1232.8,2359.8,3421.3,3424.9,858.7,963.7,1693.8,2069.5,1755.0,1034.9,-7.0,-140.0,-63.0,10750.0,-3445.0,-148.0,-11874.0,1088.0,530.0,-40.0,44.0,4.0,34.0,10282.0,-1714.0,1430.0,-12559.0,536.0,558.0,463.0,1.0
2022-05-23 16:22:39.585008-07:00,2259.0,740.6,1748.3,1921.3,1503.2,1296.3,1506.9,1673.8,3418.9,3423.7,2200.4,1684.3,0.0,3421.3,1496.7,2087.6,3423.7,3417.7,724.1,1489.3,1038.3,553.0,1232.8,2359.8,3432.2,3428.6,858.7,963.7,1680.5,2051.4,1755.0,1034.9,27.0,-85.0,-43.0,10835.0,-2998.0,-296.0,-11915.0,991.0,687.0,-70.0,83.0,-28.0,-63.0,10451.0,-1372.0,1428.0,-12461.0,525.0,542.0,577.0,1.0
2022-05-23 16:22:39.674489-07:00,2249.7,746.3,1748.3,1921.3,1592.7,1299.0,1506.9,1673.8,3416.5,3424.9,2200.4,1684.3,0.0,3423.7,1496.7,2087.6,3423.7,3417.7,718.4,1482.9,1038.3,553.0,1223.9,2330.6,3432.2,3428.6,852.8,961.1,1680.5,2051.4,1738.7,1007.3,36.0,-223.0,-194.0,10970.0,-2323.0,-627.0,-11929.0,2034.0,549.0,167.0,149.0,0.0,-110.0,10691.0,-907.0,1355.0,-12307.0,1282.0,752.0,1000.0,1.0
2022-05-23 16:22:39.734374-07:00,2249.7,746.3,1739.7,1918.3,1592.7,1299.0,1511.5,1683.3,3416.5,3424.9,2188.1,1676.7,0.0,3423.7,1484.7,2079.5,3416.5,3431.0,718.4,1482.9,1037.5,555.4,1223.9,2330.6,3420.1,3429.8,852.8,961.1,1657.7,2041.4,1738.7,1007.3,-12.0,-28.0,-221.0,11154.0,-1506.0,-1094.0,-11855.0,2129.0,766.0,241.0,34.0,70.0,-210.0,11026.0,-264.0,1158.0,-12061.0,1272.0,664.0,1121.0,1.0
2022-05-23 16:22:39.735461-07:00,2225.0,728.2,1739.7,1918.3,1618.1,1305.2,1511.5,1683.3,3421.3,3434.6,2178.9,1676.7,0.0,3418.9,1484.7,2079.5,3416.5,3431.0,719.2,1479.2,1037.5,553.8,1234.6,2310.8,3420.1,3429.8,848.6,956.0,1657.7,2028.4,1735.8,1007.3,-28.0,6.0,-152.0,11342.0,-526.0,-1570.0,-11707.0,2669.0,1020.0,264.0,-34.0,48.0,-200.0,11383.0,387.0,880.0,-11745.0,1823.0,526.0,1235.0,1.0
2022-05-23 16:22:39.824418-07:00,2225.0,728.2,1739.7,1912.4,1618.1,1292.7,1518.0,1668.2,3421.3,3434.6,2178.9,1668.2,0.0,3427.4,1476.4,2068.5,3426.2,3429.8,730.7,1479.2,1042.6,553.8,1234.6,2310.8,3427.4,3428.6,844.4,956.0,1636.9,2028.4,1735.8,1007.3,-150.0,-6.0,-232.0,11473.0,593.0,-2333.0,-11446.0,3598.0,201.0,373.0,-118.0,2.0,-55.0,11698.0,1224.0,310.0,-11401.0,3128.0,302.0,1177.0,1.0
2022-05-23 16:22:39.854359-07:00,2218.8,731.5,1713.8,1912.4,1658.7,1292.7,1518.0,1668.2,3434.6,3426.2,2175.8,1668.2,0.0,3427.4,1476.4,2068.5,3426.2,3429.8,730.7,1468.1,1042.6,560.2,1231.9,2298.3,3427.4,3428.6,844.4,962.0,1636.9,2020.4,1736.8,1013.3,21.0,238.0,-138.0,11443.0,1498.0,-3248.0,-11168.0,3765.0,45.0,183.0,-114.0,210.0,-149.0,11851.0,2351.0,-676.0,-11045.0,3416.0,145.0,834.0,1.0
2022-05-23 16:22:39.884862-07:00,2218.8,731.5,1713.8,1911.5,1658.7,1297.2,1519.0,1671.0,3434.6,3426.2,2175.8,1665.3,0.0,3421.3,1478.3,2063.5,3428.6,3418.9,727.4,1468.1,1030.6,560.2,1231.9,2298.3,3429.8,3418.9,844.4,962.0,1632.2,2020.4,1736.8,1013.3,14.0,265.0,-43.0,11309.0,2596.0,-4203.0,-10776.0,2974.0,302.0,17.0,-76.0,208.0,3.0,11823.0,3308.0,-1554.0,-10737.0,2489.0,82.0,446.0,1.0
2022-05-23 16:22:39.944375-07:00,2218.8,732.3,1718.6,1911.5,1618.1,1297.2,1519.0,1671.0,3431.0,3421.3,2162.6,1665.3,0.0,3421.3,1478.3,2063.5,3428.6,3418.9,727.4,1461.7,1030.6,553.0,1237.3,2292.1,3429.8,3418.9,844.4,956.0,1632.2,2014.4,1726.3,1003.9,-18.0,190.0,-5.0,11115.0,3414.0,-4853.0,-10473.0,2100.0,180.0,-148.0,-95.0,120.0,-33.0,11710.0,3997.0,-2176.0,-10516.0,1806.0,59.0,197.0,1.0
2022-05-23 16:22:40.034379-07:00,2218.8,732.3,1718.6,1905.6,1592.7,1287.3,1516.2,1680.5,3431.0,3421.3,2162.6,1657.7,0.0,3423.7,1465.4,2063.5,3427.4,3420.1,733.2,1457.1,1031.4,553.0,1237.3,2292.1,3433.4,3421.3,844.4,960.2,1623.7,2014.4,1726.3,1003.9,-60.0,50.0,-3.0,10930.0,4048.0,-5260.0,-10243.0,1469.0,219.0,-7.0,-75.0,99.0,49.0,11579.0,4461.0,-2595.0,-10379.0,1193.0,-16.0,88.0,1.0
2022-05-23 16:22:40.035572-07:00,2217.8,724.1,1708.1,1893.8,1592.7,1287.3,1516.2,1680.5,3426.2,3428.6,2150.4,1654.9,0.0,3423.7,1465.4,2063.5,3427.4,3420.1,733.2,1457.1,1028.0,552.2,1233.7,2279.6,3433.4,3421.3,844.4,960.2,1614.3,2003.5,1719.6,1016.8,-62.0,68.0,33.0,10803.0,4441.0,-5562.0,-10053.0,983.0,12.0,-68.0,-81.0,33.0,32.0,11465.0,4769.0,-2897.0,-10288.0,832.0,-5.0,48.0,1.0
2022-05-23 16:22:40.095237-07:00,2217.8,724.1,1708.1,1893.8,1574.9,1292.7,1516.2,1657.7,3426.2,3428.6,2150.4,1654.9,0.0,3420.1,1472.7,2056.4,3434.6,3422.5,745.5,1447.9,1028.0,552.2,1233.7,2279.6,3427.4,3428.6,841.9,950.9,1614.3,2003.5,1719.6,1016.8,-22.0,62.0,13.0,10675.0,4702.0,-5763.0,-9958.0,618.0,-12.0,-133.0,-45.0,82.0,39.0,11390.0,4966.0,-3078.0,-10226.0,418.0,-3.0,21.0,1.0
2022-05-23 16:22:40.154327-07:00,2200.4,720.8,1711.9,1890.9,1574.9,1292.7,1516.2,1657.7,3423.7,3428.6,2140.2,1647.3,0.0,3420.1,1472.7,2056.4,3434.6,3422.5,745.5,1447.9,1015.1,545.8,1240.8,2267.2,3427.4,3428.6,841.9,950.9,1599.3,1996.5,1711.0,1012.5,44.0,54.0,48.0,10588.0,4816.0,-5884.0,-9925.0,213.0,-42.0,-111.0,-1.0,43.0,-7.0,11343.0,5061.0,-3182.0,-10200.0,248.0,-73.0,-36.0,1.0
2022-05-23 16:22:40.214411-07:00,2200.4,720.8,1711.9,1890.9,1559.9,1291.8,1508.8,1652.0,3423.7,3428.6,2140.2,1647.3,0.0,3418.9,1474.6,2049.4,3429.8,3418.9,735.6,1446.0,1015.1,545.8,1240.8,2267.2,3424.9,3434.6,851.1,953.4,1599.3,1996.5,1711.0,1012.5,19.0,-6.0,23.0,10514.0,4921.0,-5916.0,-9934.0,330.0,65.0,-201.0,0.0,42.0,13.0,11295.0,5107.0,-3252.0,-10208.0,191.0,-59.0,-62.0,1.0
2022-05-23 16:22:40.274461-07:00,2200.4,717.5,1702.4,1885.0,1559.9,1291.8,1508.8,1652.0,3427.4,3432.2,2134.1,1644.5,0.0,3418.9,1474.6,2049.4,3429.8,3418.9,735.6,1446.0,1018.5,547.4,1237.3,2270.3,3424.9,3434.6,851.1,953.4,1593.6,2003.5,1710.0,1017.6,37.0,6.0,18.0,10441.0,5025.0,-5971.0,-9926.0,139.0,-11.0,-92.0,16.0,38.0,-16.0,11250.0,5161.0,-3316.0,-10210.0,144.0,-30.0,-38.0,1.0
2022-05-23 16:22:40.304439-07:00,2199.3,717.5,1702.4,1885.0,1556.2,1287.3,1497.7,1642.6,3420.1,3432.2,2134.1,1644.5,0.0,3423.7,1466.3,2053.4,3414.1,3424.9,729.9,1444.2,1018.5,547.4,1237.3,2261.0,3424.9,3428.6,836.1,950.9,1593.6,2003.5,1710.0,1015.1,16.0,-30.0,24.0,10426.0,5028.0,-5990.0,-9928.0,35.0,-24.0,19.0,3.0,-7.0,-29.0,11237.0,5175.0,-3339.0,-10210.0,78.0,-19.0,10.0,1.0
2022-05-23 16:22:40.334474-07:00,2199.3,709.3,1707.2,1884.0,1556.2,1287.3,1497.7,1640.7,3420.1,3434.6,2133.1,1642.6,0.0,3423.7,1466.3,2037.4,3423.7,3424.9,729.9,1444.2,1018.5,551.4,1239.1,2261.0,3428.6,3428.6,836.1,950.9,1599.3,1999.5,1704.3,1015.1,3.0,-9.0,48.0,10429.0,5057.0,-5990.0,-9911.0,86.0,129.0,-9.0,-8.0,8.0,18.0,11229.0,5190.0,-3361.0,-10204.0,51.0,-10.0,10.0,1.0
2022-05-23 16:22:40.394485-07:00,2170.7,709.3,1707.2,1884.0,1541.3,1286.4,1504.1,1640.7,3429.8,3434.6,2133.1,1642.6,0.0,3431.0,1458.9,2037.4,3423.7,3429.8,734.0,1436.9,1018.5,551.4,1239.1,2247.6,3428.6,3429.8,842.8,950.9,1599.3,1999.5,1704.3,1007.3,-16.0,6.0,26.0,10434.0,5092.0,-5976.0,-9896.0,25.0,-35.0,23.0,-21.0,24.0,36.0,11225.0,5208.0,-3366.0,-10198.0,32.0,39.0,9.0,1.0
2022-05-23 16:22:40.484764-07:00,2170.7,711.8,1702.4,1886.0,1541.3,1286.4,1504.1,1640.7,3429.8,3423.7,2132.1,1641.6,0.0,3431.0,1458.9,2034.4,3432.2,3429.8,734.0,1436.9,1002.2,550.6,1226.6,2247.6,3429.8,3429.8,842.8,950.9,1560.9,2006.4,1708.1,1007.3,13.0,10.0,11.0,10439.0,5058.0,-5993.0,-9898.0,-107.0,-62.0,68.0,-14.0,33.0,-20.0,11232.0,5216.0,-3359.0,-10187.0,-43.0,18.0,23.0,1.0
2022-05-23 16:22:40.486413-07:00,2185.0,711.8,1702.4,1886.0,1523.6,1282.8,1492.1,1640.7,3429.8,3423.7,2132.1,1641.6,0.0,3414.1,1474.6,2034.4,3432.2,3421.3,731.5,1431.4,1002.2,550.6,1226.6,2245.6,3429.8,3424.9,840.3,953.4,1560.9,2006.4,1708.1,1016.8,26.0,6.0,23.0,10459.0,5005.0,-5965.0,-9920.0,-155.0,9.0,-52.0,4.0,8.0,-11.0,11248.0,5180.0,-3332.0,-10197.0,-117.0,-25.0,-23.0,1.0
2022-05-23 16:22:40.544378-07:00,2185.0,706.0,1701.4,1872.3,1523.6,1282.8,1487.5,1628.4,3429.8,3423.7,2114.9,1631.3,0.0,3414.1,1457.1,2040.4,3418.9,3420.1,731.5,1431.4,997.9,543.4,1232.8,2245.6,3432.2,3437.0,840.3,953.4,1573.0,1993.5,1707.2,1016.8,4.0,-10.0,10.0,10451.0,5012.0,-5931.0,-9945.0,16.0,34.0,-71.0,-11.0,24.0,-5.0,11245.0,5171.0,-3312.0,-10212.0,-29.0,16.0,-34.0,1.0
2022-05-23 16:22:40.604711-07:00,2190.1,705.2,1701.4,1872.3,1513.4,1274.7,1487.5,1628.4,3432.2,3429.8,2114.9,1631.3,0.0,3434.6,1457.1,2040.4,3418.9,3420.1,734.0,1425.9,997.9,543.4,1230.2,2241.4,3432.2,3437.0,833.6,953.4,1573.0,1993.5,1700.5,1013.3,2.0,-12.0,0.0,10452.0,5008.0,-5920.0,-9954.0,-73.0,12.0,0.0,-13.0,16.0,-25.0,11243.0,5175.0,-3299.0,-10216.0,-60.0,8.0,-4.0,1.0
2022-05-23 16:22:40.634577-07:00,2190.1,705.2,1696.7,1872.3,1513.4,1274.7,1482.9,1635.0,3432.2,3429.8,2123.0,1640.7,0.0,3434.6,1456.2,2032.4,3429.8,3423.7,734.0,1425.9,999.6,550.6,1230.2,2241.4,3421.3,3426.2,833.6,953.4,1574.9,1988.5,1700.5,1013.3,8.0,-38.0,-6.0,10467.0,4992.0,-5888.0,-9964.0,-51.0,44.0,-23.0,-8.0,0.0,-28.0,11249.0,5166.0,-3282.0,-10220.0,-46.0,13.0,4.0,1.0
2022-05-23 16:22:40.694385-07:00,2183.0,696.2,1696.7,1872.3,1521.8,1282.8,1482.9,1635.0,3426.2,3429.8,2123.0,1640.7,0.0,3417.7,1456.2,2032.4,3429.8,3423.7,732.3,1438.7,999.6,550.6,1233.7,2238.4,3421.3,3426.2,834.4,949.2,1574.9,1988.5,1698.6,1011.6,-13.0,-16.0,-17.0,10473.0,4997.0,-5889.0,-9954.0,37.0,-17.0,51.0,-20.0,8.0,-19.0,11251.0,5174.0,-3280.0,-10214.0,29.0,5.0,30.0,1.0
2022-05-23 16:22:40.724401-07:00,2183.0,696.2,1695.7,1872.3,1521.8,1282.8,1485.6,1633.1,3426.2,3429.8,2116.9,1636.0,0.0,3417.7,1458.0,2029.4,3426.2,3423.7,732.3,1438.7,1001.3,545.0,1233.7,2238.4,3423.7,3428.6,834.4,949.2,1567.4,1982.6,1698.6,1011.6,16.0,13.0,10.0,10491.0,4962.0,-5912.0,-9940.0,-71.0,-50.0,98.0,-12.0,29.0,-26.0,11257.0,5188.0,-3294.0,-10196.0,7.0,-9.0,54.0,1.0
2022-05-23 16:22:40.844354-07:00,2154.4,709.3,1691.9,1872.3,1522.7,1283.7,1485.6,1633.1,3421.3,3428.6,2112.8,1636.0,0.0,3423.7,1458.0,2029.4,3426.2,3423.7,736.5,1427.7,1001.3,546.6,1230.2,2233.2,3423.7,3428.6,836.1,952.6,1567.4,1982.6,1694.8,1004.8,16.0,9.0,9.0,10521.0,4930.0,-5891.0,-9936.0,-62.0,36.0,22.0,0.0,15.0,0.0,11268.0,5179.0,-3297.0,-10186.0,-51.0,-18.0,30.0,1.0
2022-05-23 16:22:40.845520-07:00,2154.4,709.3,1691.9,1866.4,1522.7,1281.0,1485.6,1629.4,3421.3,3428.6,2112.8,1635.0,0.0,3428.6,1450.6,2030.4,3429.8,3414.1,729.0,1427.7,994.5,546.6,1230.2,2233.2,3434.6,3426.2,838.6,952.6,1555.3,1982.6,1694.8,1004.8,5.0,28.0,9.0,10530.0,4925.0,-5887.0,-9932.0,-33.0,-9.0,25.0,-10.0,34.0,5.0,11271.0,5176.0,-3297.0,-10185.0,-23.0,-8.0,2.0,1.0
2022-05-23 16:22:40.874624-07:00,2178.9,702.8,1691.0,1866.4,1509.7,1281.0,1485.6,1629.4,3424.9,3426.2,2111.8,1635.0,0.0,3428.6,1450.6,2030.4,3429.8,3414.1,729.0,1433.2,994.5,546.6,1227.5,2240.4,3434.6,3426.2,838.6,948.3,1555.3,1979.6,1699.5,1012.5,6.0,3.0,19.0,10541.0,4891.0,-5865.0,-9950.0,-128.0,1.0,-17.0,-17.0,16.0,1.0,11275.0,5161.0,-3283.0,-10193.0,-94.0,-14.0,-17.0,1.0
2022-05-23 16:22:40.934509-07:00,2178.9,702.8,1691.0,1862.5,1509.7,1283.7,1484.7,1623.7,3424.9,3426.2,2111.8,1630.3,0.0,3418.9,1449.7,2035.4,3432.2,3427.4,727.4,1433.2,991.0,546.6,1227.5,2240.4,3423.7,3434.6,831.9,948.3,1555.3,1979.6,1699.5,1012.5,-33.0,13.0,11.0,10564.0,4844.0,-5827.0,-9971.0,-189.0,-52.0,54.0,-29.0,13.0,24.0,11290.0,5126.0,-3243.0,-10208.0,-160.0,5.0,0.0,1.0
2022-05-23 16:22:40.994477-07:00,2178.9,693.8,1685.3,1862.5,1506.0,1283.7,1484.7,1623.7,3437.0,3424.9,2110.8,1630.3,0.0,3418.9,1449.7,2035.4,3432.2,3427.4,727.4,1429.5,991.0,546.6,1231.9,2234.2,3423.7,3434.6,831.9,945.8,1555.3,1987.5,1687.2,1014.2,-7.0,224.0,15.0,10608.0,4715.0,-5754.0,-10028.0,-629.0,-1.0,-24.0,-110.0,115.0,-44.0,11333.0,5009.0,-3139.0,-10250.0,-769.0,-77.0,-35.0,1.0
2022-05-23 16:22:41.024536-07:00,2178.9,693.8,1685.3,1870.3,1506.0,1278.3,1479.2,1631.3,3437.0,3424.9,2110.8,1636.0,0.0,3427.4,1445.1,2029.4,3426.2,3421.3,723.3,1429.5,989.3,546.6,1231.9,2234.2,3421.3,3424.9,824.4,945.8,1557.1,1987.5,1687.2,1014.2,-142.0,115.0,-44.0,10762.0,4384.0,-5252.0,-10286.0,-1968.0,255.0,-290.0,-137.0,71.0,110.0,11476.0,4517.0,-2766.0,-10425.0,-1858.0,-254.0,-199.0,1.0
2022-05-23 16:22:41.084383-07:00,2175.8,720.8,1701.4,1863.5,1523.6,1278.3,1479.2,1631.3,3423.7,3421.3,2115.9,1630.3,0.0,3427.4,1445.1,2029.4,3426.2,3421.3,723.3,1427.7,993.6,545.0,1224.8,2234.2,3421.3,3424.9,824.4,950.9,1601.1,1978.6,1733.9,1006.5,55.0,189.0,47.0,10943.0,3723.0,-4626.0,-10651.0,-2484.0,-218.0,-219.0,-50.0,148.0,8.0,11602.0,3837.0,-2270.0,-10674.0,-2184.0,-309.0,-310.0,1.0
2022-05-23 16:22:41.145205-07:00,2175.8,720.8,1701.4,1863.5,1539.4,1308.8,1509.7,1674.8,3423.7,3421.3,2115.9,1630.3,0.0,3422.5,1457.1,2028.4,3423.7,3427.4,722.5,1429.5,993.6,545.0,1224.8,2234.2,3431.0,3434.6,845.3,949.2,1601.1,1978.6,1733.9,1006.5,35.0,2.0,-10.0,11098.0,2945.0,-3805.0,-11051.0,-2883.0,72.0,-302.0,2.0,65.0,62.0,11697.0,2998.0,-1593.0,-10958.0,-2639.0,-230.0,-472.0,1.0
2022-05-23 16:22:41.204473-07:00,2210.6,743.9,1726.3,1855.7,1539.4,1308.8,1509.7,1674.8,3433.4,3433.4,2107.8,1635.0,0.0,3422.5,1457.1,2028.4,3423.7,3427.4,722.5,1429.5,986.7,549.0,1223.9,2234.2,3431.0,3434.6,845.3,949.2,1610.5,1991.5,1727.2,1015.1,54.0,-50.0,-13.0,11230.0,2143.0,-3116.0,-11315.0,-2254.0,-405.0,60.0,41.0,63.0,-2.0,11712.0,2278.0,-936.0,-11189.0,-1960.0,-61.0,-463.0,1.0
2022-05-23 16:22:41.234415-07:00,2210.6,743.9,1726.3,1855.7,1548.7,1332.3,1515.3,1754.1,3433.4,3433.4,2107.8,1635.0,0.0,3418.9,1463.5,2023.4,3424.9,3421.3,720.8,1428.6,986.7,549.0,1223.9,2234.2,3428.6,3435.8,837.7,948.3,1610.5,1991.5,1727.2,1015.1,166.0,43.0,67.0,11419.0,1274.0,-2553.0,-11398.0,-2540.0,-372.0,491.0,66.0,100.0,-135.0,11686.0,1737.0,-358.0,-11346.0,-1855.0,68.0,-362.0,1.0
2022-05-23 16:22:41.327938-07:00,2241.4,756.3,1732.0,1867.4,1548.7,1332.3,1515.3,1754.1,3434.6,3427.4,2079.5,1621.8,0.0,3418.9,1463.5,2023.4,3424.9,3421.3,720.8,1428.6,1003.0,546.6,1222.2,2233.2,3428.6,3435.8,837.7,948.3,1612.4,2004.5,1730.1,1015.1,-46.0,-71.0,-132.0,11620.0,454.0,-1608.0,-11429.0,-2889.0,430.0,411.0,-22.0,-66.0,-68.0,11648.0,1062.0,381.0,-11467.0,-2447.0,143.0,-402.0,1.0
2022-05-23 16:22:41.329005-07:00,2281.7,756.3,1732.0,1867.4,1581.4,1363.9,1491.2,1783.9,3426.2,3427.4,2079.5,1621.8,0.0,3420.1,1458.0,2017.4,3418.9,3428.6,716.7,1431.4,1003.0,546.6,1222.2,2238.4,3433.4,3429.8,878.9,956.8,1612.4,2004.5,1730.1,1014.2,-58.0,69.0,-113.0,11737.0,-222.0,-936.0,-11391.0,-1723.0,-106.0,130.0,3.0,-51.0,-164.0,11570.0,501.0,977.0,-11548.0,-1346.0,-77.0,-399.0,1.0
2022-05-23 16:22:41.414386-07:00,2281.7,754.6,1741.6,1859.6,1581.4,1363.9,1491.2,1771.4,3426.2,3427.4,2074.5,1619.9,0.0,3420.1,1458.0,2014.4,3418.9,3428.6,716.7,1431.4,1010.8,548.2,1212.4,2238.4,3427.4,3429.8,878.9,956.8,1608.7,1997.5,1727.2,1014.2,-29.0,60.0,-147.0,11633.0,-529.0,-519.0,-11513.0,-881.0,291.0,-513.0,-13.0,49.0,-54.0,11425.0,66.0,1268.0,-11674.0,-1033.0,-204.0,-568.0,1.0
2022-05-23 16:22:41.444466-07:00,2273.4,754.6,1741.6,1859.6,1600.2,1357.6,1484.7,1771.4,3427.4,3427.4,2074.5,1619.9,0.0,3429.8,1456.2,2014.4,3418.9,3429.8,716.7,1419.5,1010.8,548.2,1212.4,2222.9,3427.4,3427.4,885.6,948.3,1608.7,1997.5,1727.2,1015.9,11.0,63.0,-117.0,11456.0,-780.0,-316.0,-11683.0,-830.0,-357.0,-513.0,15.0,93.0,-29.0,11255.0,-285.0,1430.0,-11817.0,-683.0,-362.0,-571.0,1.0
2022-05-23 16:22:41.474698-07:00,2273.4,754.6,1734.9,1842.0,1600.2,1357.6,1484.7,1756.0,3427.4,3429.8,2075.5,1612.4,0.0,3429.8,1456.2,2012.4,3428.6,3429.8,716.7,1419.5,996.2,550.6,1200.9,2222.9,3434.6,3427.4,885.6,948.3,1599.3,1991.5,1730.1,1015.9,60.0,-71.0,-8.0,11282.0,-1135.0,-145.0,-11825.0,-775.0,-149.0,-389.0,78.0,19.0,-47.0,11086.0,-650.0,1538.0,-11947.0,-745.0,-366.0,-522.0,1.0
2022-05-23 16:22:41.564404-07:00,2261.0,754.6,1734.9,1842.0,1590.8,1347.6,1484.7,1756.0,3427.4,3429.8,2075.5,1612.4,0.0,3424.9,1449.7,2012.4,3428.6,3416.5,720.0,1422.2,996.2,550.6,1200.9,2212.7,3434.6,3434.6,891.5,948.3,1599.3,1991.5,1730.1,1011.6,-28.0,-188.0,-38.0,11203.0,-1374.0,-55.0,-11876.0,-363.0,-446.0,-24.0,36.0,-25.0,55.0,10977.0,-823.0,1626.0,-12026.0,-156.0,-44.0,-206.0,1.0
2022-05-23 16:22:41.594470-07:00,2261.0,742.2,1733.9,1835.2,1590.8,1347.6,1484.7,1754.1,3427.4,3418.9,2077.5,1609.6,0.0,3424.9,1449.7,1996.5,3422.5,3416.5,720.0,1422.2,997.0,543.4,1201.8,2212.7,3418.9,3434.6,891.5,948.3,1598.3,1978.6,1733.9,1011.6,51.0,9.0,10.0,11251.0,-1632.0,-127.0,-11797.0,-321.0,-369.0,198.0,32.0,45.0,-100.0,10968.0,-808.0,1622.0,-12036.0,-16.0,73.0,4.0,1.0
2022-05-23 16:22:41.624295-07:00,2241.4,743.9,1733.9,1835.2,1557.1,1354.9,1486.6,1754.1,3426.2,3429.8,2077.5,1609.6,0.0,3431.0,1454.3,1996.5,3422.5,3426.2,711.8,1414.9,997.0,543.4,1200.0,2207.5,3418.9,3426.2,897.4,949.2,1598.3,1978.6,1728.2,1005.6,-5.0,-39.0,-23.0,11305.0,-1709.0,-30.0,-11735.0,-181.0,186.0,200.0,17.0,-25.0,-32.0,10957.0,-833.0,1731.0,-12029.0,-306.0,150.0,-2.0,1.0
2022-05-23 16:22:41.714343-07:00,2241.4,743.9,1732.0,1836.2,1557.1,1354.9,1477.3,1751.2,3426.2,3429.8,2075.5,1624.7,0.0,3431.0,1455.2,2014.4,3417.7,3418.9,711.8,1414.9,998.7,545.8,1200.0,2207.5,3417.7,3420.1,897.4,949.2,1598.3,1982.6,1728.2,1005.6,-8.0,15.0,-41.0,11369.0,-1731.0,48.0,-11670.0,-198.0,-35.0,251.0,14.0,6.0,-8.0,10946.0,-882.0,1850.0,-12018.0,-284.0,43.0,-2.0,1.0
2022-05-23 16:22:41.774306-07:00,2221.9,724.9,1732.0,1836.2,1553.4,1351.2,1477.3,1751.2,3416.5,3424.9,2075.5,1624.7,0.0,3426.2,1455.2,2014.4,3417.7,3418.9,712.6,1417.6,998.7,545.8,1201.8,2207.5,3417.7,3420.1,889.0,945.8,1598.3,1982.6,1754.1,1003.0,32.0,25.0,0.0,11388.0,-1787.0,173.0,-11641.0,-281.0,253.0,-6.0,38.0,3.0,5.0,10911.0,-1005.0,1952.0,-12024.0,-444.0,-56.0,-150.0,1.0
2022-05-23 16:22:41.775441-07:00,2221.9,724.9,1775.2,1845.0,1553.4,1351.2,1482.9,1728.2,3416.5,3424.9,2081.6,1604.9,0.0,3426.2,1467.2,2019.4,3421.3,3427.4,712.6,1417.6,997.0,549.0,1201.8,2207.5,3424.9,3439.5,889.0,945.8,1588.9,1998.5,1754.1,1003.0,-5.0,3.0,-83.0,11329.0,-1971.0,267.0,-11667.0,-515.0,-533.0,-188.0,54.0,-4.0,-23.0,10841.0,-1180.0,2008.0,-12062.0,-272.0,-339.0,-227.0,1.0
2022-05-23 16:22:41.834959-07:00,2184.0,729.0,1775.2,1845.0,1525.5,1348.5,1482.9,1728.2,3421.3,3421.3,2081.6,1604.9,0.0,3429.8,1467.2,2019.4,3421.3,3427.4,711.0,1415.8,997.0,549.0,1201.8,2205.5,3424.9,3439.5,884.8,944.9,1588.9,1998.5,1753.1,1009.0,44.0,1.0,25.0,11208.0,-2101.0,276.0,-11761.0,-159.0,173.0,-439.0,0.0,8.0,-17.0,10759.0,-1334.0,2039.0,-12114.0,-319.0,-77.0,-308.0,1.0
2022-05-23 16:22:41.894464-07:00,2184.0,729.0,1795.5,1825.5,1525.5,1339.5,1462.6,1706.2,3421.3,3421.3,2062.5,1599.3,0.0,3429.8,1460.8,1997.5,3429.8,3427.4,706.0,1415.8,999.6,543.4,1201.8,2205.5,3428.6,3423.7,878.9,944.9,1587.1,1974.6,1753.1,1009.0,-74.0,-136.0,-31.0,11088.0,-2023.0,280.0,-11888.0,338.0,33.0,-294.0,3.0,-65.0,8.0,10686.0,-1415.0,2029.0,-12171.0,201.0,-74.0,-142.0,1.0
2022-05-23 16:22:41.954452-07:00,2184.0,722.5,1909.5,1825.5,1476.4,1339.5,1462.6,1706.2,3426.2,3429.8,2061.5,1599.3,0.0,3429.8,1460.8,1997.5,3429.8,3427.4,706.0,1415.8,999.6,545.0,1198.2,2201.4,3428.6,3423.7,878.9,946.6,1587.1,1998.5,1762.7,1006.5,19.0,-48.0,121.0,11085.0,-1869.0,237.0,-11917.0,375.0,496.0,-6.0,24.0,-90.0,-16.0,10689.0,-1370.0,1994.0,-12179.0,50.0,80.0,56.0,1.0
2022-05-23 16:22:42.014379-07:00,2184.0,722.5,1909.5,1891.8,1476.4,1354.0,1443.3,1676.7,3426.2,3429.8,2061.5,1593.6,0.0,3434.6,1514.3,2026.4,3421.3,3428.6,710.1,1415.8,990.2,545.0,1198.2,2201.4,3423.7,3417.7,871.3,946.6,1571.1,1998.5,1762.7,1006.5,-121.0,-12.0,6.0,11039.0,-1361.0,241.0,-12027.0,925.0,888.0,-254.0,-63.0,18.0,135.0,10716.0,-1208.0,1943.0,-12181.0,545.0,217.0,114.0,1.0
2022-05-23 16:22:42.074873-07:00,2261.0,718.4,1945.9,1891.8,1444.2,1354.0,1443.3,1676.7,3426.2,3431.0,2086.6,1593.6,0.0,3434.6,1514.3,2026.4,3421.3,3428.6,710.1,1416.7,990.2,541.0,1192.0,2187.1,3423.7,3417.7,871.3,955.1,1571.1,2023.4,1801.3,1016.8,83.0,68.0,36.0,11049.0,-1055.0,50.0,-12052.0,1095.0,108.0,47.0,43.0,85.0,12.0,10790.0,-905.0,1709.0,-12177.0,1013.0,163.0,176.0,1.0
2022-05-23 16:22:42.075793-07:00,2261.0,718.4,1945.9,1861.5,1444.2,1353.1,1454.3,1664.4,3426.2,3431.0,2086.6,1593.6,0.0,3423.7,1607.7,2061.5,3423.7,3426.2,710.1,1416.7,988.5,541.0,1192.0,2187.1,3431.0,3431.0,873.8,955.1,1569.3,2023.4,1801.3,1016.8,6.0,-69.0,91.0,11067.0,-589.0,-188.0,-12065.0,1395.0,780.0,-258.0,48.0,-34.0,95.0,10813.0,-470.0,1390.0,-12221.0,1484.0,306.0,-61.0,1.0
2022-05-23 16:22:42.254273-07:00,2236.3,715.9,1967.7,1849.8,1405.8,1353.1,1454.3,1664.4,3428.6,3418.9,2159.5,1574.9,0.0,3423.7,1607.7,2061.5,3423.7,3426.2,710.1,1412.2,991.9,550.6,1194.7,2242.5,3431.0,3431.0,873.8,952.6,1565.5,2152.4,1921.3,1016.8,87.0,56.0,-24.0,11018.0,107.0,-570.0,-12112.0,1537.0,256.0,-71.0,121.0,117.0,31.0,10825.0,116.0,1045.0,-12254.0,1380.0,547.0,170.0,1.0
2022-05-23 16:22:42.285135-07:00,2236.3,715.9,1967.7,1849.8,1398.5,1363.0,1459.8,1669.1,3428.6,3418.9,2159.5,1574.9,0.0,3426.2,1713.8,2101.7,3418.9,3414.1,711.8,1413.1,991.9,550.6,1194.7,2242.5,3428.6,3432.2,864.6,980.7,1565.5,2152.4,1921.3,1016.8,73.0,-122.0,53.0,10979.0,650.0,-948.0,-12107.0,1946.0,543.0,-180.0,86.0,24.0,-25.0,10863.0,770.0,664.0,-12222.0,1940.0,643.0,266.0,1.0
2022-05-23 16:22:42.286005-07:00,2209.6,702.8,1812.9,1785.8,1398.5,1363.0,1459.8,1669.1,3418.9,3418.9,2053.4,1534.8,0.0,3426.2,1713.8,2101.7,3418.9,3414.1,711.8,1413.1,985.0,548.2,1194.7,2354.6,3428.6,3432.2,864.6,980.7,1551.5,2047.4,1788.7,1016.8,97.0,-201.0,-5.0,10903.0,1514.0,-1473.0,-12045.0,2808.0,961.0,14.0,89.0,-109.0,-147.0,10906.0,1630.0,201.0,-12116.0,2273.0,850.0,460.0,1.0
2022-05-23 16:22:42.287005-07:00,2209.6,702.8,1812.9,1785.8,1370.3,1345.8,1494.9,1692.9,3418.9,3418.9,2053.4,1534.8,0.0,3421.3,1579.6,2001.5,3417.7,3416.5,707.7,1433.2,985.0,548.2,1194.7,2354.6,3421.3,3431.0,868.8,989.3,1551.5,2047.4,1788.7,1016.8,-63.0,-190.0,-210.0,10757.0,2840.0,-2214.0,-11822.0,4057.0,1064.0,14.0,-29.0,-100.0,-99.0,10903.0,2701.0,-496.0,-11917.0,3213.0,747.0,485.0,1.0
2022-05-23 16:22:42.374133-07:00,2225.0,706.0,1698.6,1734.9,1370.3,1345.8,1494.9,1692.9,3421.3,3434.6,1971.7,1507.8,0.0,3421.3,1579.6,2001.5,3417.7,3416.5,707.7,1433.2,987.6,552.2,1192.0,2314.9,3421.3,3431.0,868.8,989.3,1529.2,1930.2,1637.9,1007.3,16.0,-12.0,-172.0,10482.0,4294.0,-3263.0,-11379.0,3891.0,1059.0,277.0,-78.0,17.0,-167.0,10786.0,3842.0,-1371.0,-11638.0,2999.0,600.0,474.0,1.0
2022-05-23 16:22:42.375258-07:00,2225.0,706.0,1698.6,1734.9,1339.5,1334.1,1490.3,1669.1,3421.3,3434.6,1971.7,1507.8,0.0,3426.2,1487.5,1919.3,3429.8,3426.2,717.5,1411.3,987.6,552.2,1192.0,2314.9,3423.7,3427.4,868.8,990.2,1529.2,1930.2,1637.9,1007.3,-59.0,-61.0,-256.0,10186.0,5587.0,-3982.0,-10845.0,2998.0,1150.0,44.0,-168.0,27.0,-76.0,10618.0,4663.0,-2113.0,-11379.0,2478.0,69.0,262.0,1.0
2022-05-23 16:22:42.434509-07:00,2219.8,695.4,1620.9,1703.3,1339.5,1334.1,1490.3,1656.8,3424.9,3414.1,1891.8,1476.4,0.0,3426.2,1487.5,1872.3,3421.3,3426.2,717.5,1411.3,992.7,559.4,1196.5,2246.6,3429.8,3427.4,868.8,990.2,1517.1,1874.2,1577.7,1003.9,-44.0,-41.0,-211.0,9851.0,6621.0,-4571.0,-10328.0,3462.0,716.0,102.0,-53.0,-73.0,-118.0,10328.0,5413.0,-2959.0,-11122.0,2939.0,37.0,230.0,1.0
2022-05-23 16:22:42.494724-07:00,2248.7,695.4,1620.9,1703.3,1312.4,1350.3,1476.4,1656.8,3418.9,3414.1,1891.8,1476.4,0.0,3428.6,1426.8,1872.3,3421.3,3429.8,719.2,1426.8,992.7,559.4,1196.5,2224.0,3429.8,3427.4,902.5,994.5,1517.1,1874.2,1577.7,1016.8,25.0,62.0,-99.0,9263.0,7668.0,-5409.0,-9725.0,3449.0,446.0,189.0,-45.0,67.0,-98.0,9974.0,6147.0,-3791.0,-10807.0,2562.0,-48.0,268.0,1.0
2022-05-23 16:22:42.554417-07:00,2248.7,689.7,1563.7,1673.8,1312.4,1350.3,1476.4,1654.9,3418.9,3429.8,1841.1,1468.1,0.0,3428.6,1426.8,1843.0,3424.9,3429.8,719.2,1426.8,993.6,567.4,1187.6,2224.0,3427.4,3427.4,902.5,994.5,1502.3,1838.2,1550.6,1016.8,-3.0,90.0,-41.0,8845.0,8374.0,-6009.0,-9164.0,1556.0,480.0,250.0,-9.0,84.0,0.0,9806.0,6538.0,-4307.0,-10535.0,1216.0,29.0,376.0,1.0
2022-05-23 16:22:42.584468-07:00,2293.1,689.7,1563.7,1673.8,1281.9,1333.2,1463.5,1654.9,3426.2,3429.8,1841.1,1468.1,0.0,3420.1,1365.7,1843.0,3424.9,3424.9,734.0,1423.1,993.6,567.4,1187.6,2188.1,3427.4,3431.0,884.8,1000.5,1502.3,1838.2,1550.6,1009.0,-32.0,24.0,-17.0,8627.0,8796.0,-6303.0,-8771.0,1593.0,299.0,215.0,-48.0,60.0,17.0,9655.0,6860.0,-4689.0,-10304.0,1305.0,63.0,208.0,1.0
2022-05-23 16:22:42.644413-07:00,2293.1,697.0,1540.3,1659.6,1281.9,1333.2,1463.5,1641.6,3426.2,3422.5,1759.8,1443.3,0.0,3420.1,1365.7,1818.7,3423.7,3424.9,734.0,1423.1,990.2,564.2,1177.0,2188.1,3424.9,3431.0,884.8,1000.5,1508.8,1810.0,1522.7,1009.0,-24.0,57.0,-12.0,8383.0,9122.0,-6656.0,-8405.0,1172.0,130.0,377.0,-33.0,38.0,38.0,9508.0,7144.0,-5025.0,-10086.0,1070.0,68.0,218.0,1.0
2022-05-23 16:22:42.674634-07:00,2284.8,688.9,1540.3,1659.6,1275.6,1309.7,1456.2,1641.6,3423.7,3422.5,1759.8,1443.3,0.0,3418.9,1321.4,1818.7,3423.7,3423.7,749.6,1409.4,990.2,564.2,1169.1,2154.4,3424.9,3423.7,879.7,983.3,1508.8,1810.0,1488.4,1008.2,-7.0,104.0,28.0,8222.0,9310.0,-6945.0,-8119.0,774.0,130.0,241.0,-32.0,70.0,17.0,9399.0,7355.0,-5279.0,-9905.0,661.0,58.0,185.0,1.0
2022-05-23 16:22:42.734446-07:00,2284.8,688.9,1506.0,1653.0,1275.6,1309.7,1447.9,1633.1,3423.7,3422.5,1707.2,1425.9,0.0,3418.9,1285.5,1780.1,3418.9,3428.6,749.6,1409.4,977.3,563.4,1169.1,2154.4,3432.2,3429.8,879.7,983.3,1486.6,1788.7,1488.4,1008.2,8.0,59.0,44.0,8142.0,9410.0,-7074.0,-7972.0,372.0,38.0,14.0,-28.0,25.0,16.0,9366.0,7449.0,-5398.0,-9802.0,372.0,56.0,102.0,1.0
2022-05-23 16:22:42.794393-07:00,2279.6,691.3,1506.0,1653.0,1259.6,1296.3,1447.9,1633.1,3424.9,3418.9,1707.2,1425.9,0.0,3424.9,1285.5,1780.1,3418.9,3428.6,752.1,1410.3,977.3,563.4,1165.6,2143.3,3432.2,3429.8,876.4,985.9,1486.6,1788.7,1483.8,1010.8,-20.0,45.0,12.0,8052.0,9490.0,-7146.0,-7903.0,203.0,-56.0,24.0,-13.0,64.0,38.0,9365.0,7492.0,-5456.0,-9739.0,91.0,55.0,125.0,1.0
2022-05-23 16:22:42.884791-07:00,2279.6,691.3,1472.7,1636.9,1259.6,1296.3,1431.4,1657.7,3424.9,3418.9,1679.5,1422.2,0.0,3424.9,1263.1,1764.6,3416.5,3418.9,752.1,1410.3,970.5,561.0,1165.6,2143.3,3417.7,3429.8,876.4,985.9,1479.2,1769.5,1483.8,1010.8,55.0,-20.0,54.0,8019.0,9467.0,-7233.0,-7886.0,338.0,-139.0,199.0,-7.0,-20.0,-27.0,9359.0,7540.0,-5523.0,-9669.0,385.0,50.0,96.0,1.0
2022-05-23 16:22:42.885653-07:00,2262.1,691.3,1472.7,1636.9,1255.1,1294.5,1431.4,1657.7,3426.2,3432.2,1679.5,1422.2,0.0,3426.2,1263.1,1764.6,3416.5,3418.9,749.6,1396.7,970.5,561.0,1158.6,2136.1,3417.7,3429.8,877.2,984.2,1479.2,1769.5,1462.6,998.7,15.0,66.0,34.0,7968.0,9514.0,-7342.0,-7780.0,120.0,214.0,67.0,0.0,48.0,1.0,9327.0,7612.0,-5608.0,-9594.0,87.0,61.0,102.0,1.0
2022-05-23 16:22:42.944743-07:00,2262.1,691.3,1453.4,1627.5,1255.1,1294.5,1425.9,1632.2,3426.2,3432.2,1676.7,1414.9,0.0,3426.2,1245.3,1750.2,3414.1,3429.8,749.6,1396.7,967.1,562.6,1158.6,2136.1,3420.1,3429.8,877.2,984.2,1478.3,1756.0,1462.6,998.7,5.0,0.0,15.0,8006.0,9529.0,-7325.0,-7739.0,-133.0,12.0,98.0,-20.0,25.0,15.0,9362.0,7608.0,-5608.0,-9563.0,-46.0,47.0,86.0,1.0
2022-05-23 16:22:42.974647-07:00,2267.2,687.2,1443.3,1627.5,1241.7,1280.1,1425.9,1632.2,3429.8,3426.2,1655.8,1414.9,0.0,3422.5,1245.3,1750.2,3414.1,3429.8,755.4,1401.2,967.1,565.0,1153.3,2125.0,3420.1,3429.8,875.5,981.6,1478.3,1756.0,1453.4,1005.6,1.0,29.0,5.0,8051.0,9507.0,-7329.0,-7716.0,68.0,82.0,81.0,-12.0,21.0,3.0,9381.0,7613.0,-5624.0,-9532.0,98.0,32.0,67.0,1.0
2022-05-23 16:22:43.034417-07:00,2267.2,687.2,1443.3,1622.8,1241.7,1288.2,1417.6,1611.5,3429.8,3426.2,1655.8,1405.8,0.0,3423.7,1239.1,1732.0,3427.4,3415.3,748.0,1401.2,959.4,565.0,1153.3,2125.0,3423.7,3429.8,885.6,981.6,1478.3,1756.0,1453.4,1005.6,10.0,56.0,-14.0,8056.0,9502.0,-7362.0,-7685.0,-16.0,-46.0,82.0,-14.0,41.0,-11.0,9388.0,7622.0,-5640.0,-9507.0,-38.0,15.0,41.0,1.0
2022-05-23 16:22:43.094550-07:00,2260.0,684.8,1428.6,1622.8,1233.7,1288.2,1417.6,1611.5,3418.9,3422.5,1644.5,1405.8,0.0,3423.7,1239.1,1732.0,3427.4,3415.3,748.0,1391.2,959.4,565.0,1151.5,2109.8,3423.7,3429.8,885.6,974.8,1478.3,1744.5,1450.6,1009.0,4.0,3.0,29.0,8080.0,9463.0,-7345.0,-7724.0,-117.0,8.0,-76.0,-12.0,-3.0,-2.0,9406.0,7596.0,-5622.0,-9521.0,-108.0,-14.0,-7.0,1.0
2022-05-23 16:22:43.124501-07:00,2260.0,684.8,1428.6,1618.1,1233.7,1277.4,1395.7,1625.6,3418.9,3422.5,1644.5,1402.1,0.0,3434.6,1239.1,1732.0,3424.9,3411.7,748.8,1391.2,959.4,565.0,1151.5,2109.8,3431.0,3423.7,873.0,974.8,1470.9,1744.5,1450.6,1009.0,6.0,-22.0,18.0,8070.0,9473.0,-7317.0,-7747.0,9.0,-33.0,-48.0,-15.0,0.0,-1.0,9416.0,7587.0,-5601.0,-9531.0,-22.0,26.0,-9.0,1.0
2022-05-23 16:22:43.185154-07:00,2250.7,688.0,1425.0,1618.1,1225.7,1277.4,1395.7,1625.6,3421.3,3426.2,1634.1,1402.1,0.0,3434.6,1239.1,1732.0,3424.9,3411.7,748.8,1386.6,959.4,559.4,1146.3,2107.8,3431.0,3423.7,873.0,974.8,1470.9,1735.8,1447.0,1011.6,27.0,-5.0,30.0,8064.0,9469.0,-7342.0,-7736.0,110.0,23.0,52.0,-12.0,-3.0,-21.0,9399.0,7622.0,-5609.0,-9515.0,138.0,42.0,-11.0,1.0
2022-05-23 16:22:43.244730-07:00,2250.7,688.0,1425.0,1602.1,1231.0,1273.0,1397.6,1609.6,3421.3,3426.2,1634.1,1408.5,0.0,3427.4,1237.3,1724.4,3423.7,3420.1,743.0,1379.4,961.1,559.4,1146.3,2107.8,3429.8,3420.1,872.1,985.9,1470.0,1735.8,1447.0,1011.6,4.0,15.0,-2.0,8058.0,9503.0,-7357.0,-7686.0,87.0,71.0,11.0,-10.0,11.0,-3.0,9377.0,7666.0,-5626.0,-9491.0,60.0,41.0,-9.0,1.0
2022-05-23 16:22:43.274667-07:00,2244.5,675.0,1421.3,1605.8,1231.0,1273.0,1397.6,1609.6,3423.7,3422.5,1628.4,1404.0,0.0,3427.4,1237.3,1724.4,3423.7,3420.1,743.0,1379.4,956.8,566.6,1149.8,2100.7,3429.8,3420.1,872.1,985.9,1466.3,1732.0,1443.3,1000.5,26.0,-3.0,15.0,8069.0,9492.0,-7349.0,-7696.0,-99.0,-49.0,-4.0,-12.0,8.0,-12.0,9386.0,7664.0,-5611.0,-9493.0,-68.0,5.0,-8.0,1.0
2022-05-23 16:22:43.334368-07:00,2244.5,675.0,1421.3,1605.8,1218.6,1270.3,1384.8,1604.0,3423.7,3422.5,1628.4,1404.0,0.0,3429.8,1227.5,1717.7,3439.5,3426.2,738.9,1383.9,956.8,566.6,1149.8,2100.7,3427.4,3429.8,873.0,971.3,1466.3,1732.0,1443.3,1000.5,-2.0,15.0,21.0,8092.0,9462.0,-7339.0,-7717.0,-36.0,-28.0,10.0,-10.0,11.0,17.0,9398.0,7650.0,-5595.0,-9502.0,-34.0,0.0,-5.0,1.0
2022-05-23 16:22:43.365041-07:00,2236.3,674.2,1420.4,1596.4,1218.6,1270.3,1384.8,1604.0,3429.8,3418.9,1633.1,1399.4,0.0,3429.8,1227.5,1717.7,3439.5,3426.2,738.9,1383.9,959.4,559.4,1144.5,2084.6,3427.4,3429.8,873.0,971.3,1462.6,1719.6,1433.2,1000.5,3.0,41.0,24.0,8094.0,9442.0,-7340.0,-7739.0,-85.0,-42.0,-10.0,-15.0,30.0,14.0,9404.0,7640.0,-5577.0,-9514.0,-78.0,13.0,-25.0,1.0
2022-05-23 16:22:43.424540-07:00,2236.3,674.2,1420.4,1596.4,1216.0,1275.6,1371.2,1598.3,3429.8,3418.9,1633.1,1399.4,0.0,3423.7,1228.4,1716.7,3434.6,3423.7,741.4,1383.0,959.4,559.4,1144.5,2084.6,3428.6,3427.4,884.8,975.6,1462.6,1719.6,1433.2,1000.5,1.0,63.0,11.0,8123.0,9409.0,-7313.0,-7774.0,-146.0,-24.0,-34.0,-15.0,45.0,17.0,9417.0,7623.0,-5535.0,-9539.0,-140.0,20.0,-58.0,1.0
2022-05-23 16:22:43.484532-07:00,2234.2,677.4,1414.0,1606.8,1216.0,1275.6,1371.2,1615.2,3426.2,3418.9,1620.9,1397.6,0.0,3423.7,1228.4,1719.6,3414.1,3423.7,741.4,1383.0,957.7,560.2,1152.4,2084.6,3421.3,3427.4,884.8,975.6,1458.9,1730.1,1435.0,1007.3,2.0,141.0,2.0,8209.0,9309.0,-7234.0,-7877.0,-782.0,-123.0,7.0,-22.0,88.0,26.0,9465.0,7551.0,-5432.0,-9609.0,-520.0,-19.0,-87.0,1.0
2022-05-23 16:22:43.514528-07:00,2238.4,677.4,1414.0,1606.8,1206.2,1269.4,1384.8,1615.2,3428.6,3418.9,1620.9,1397.6,0.0,3432.2,1239.1,1719.6,3414.1,3418.9,744.7,1371.2,957.7,560.2,1152.4,2083.6,3421.3,3418.9,876.4,978.2,1458.9,1730.1,1435.0,1003.9,-8.0,203.0,20.0,8369.0,9096.0,-6938.0,-8217.0,-1149.0,-205.0,-773.0,-65.0,34.0,29.0,9617.0,7312.0,-5160.0,-9791.0,-1292.0,-31.0,-207.0,1.0
2022-05-23 16:22:43.574545-07:00,2238.4,667.6,1441.5,1600.2,1206.2,1269.4,1384.8,1619.0,3428.6,3434.6,1641.6,1402.1,0.0,3432.2,1239.1,1718.6,3426.2,3418.9,744.7,1371.2,948.3,563.4,1185.9,2083.6,3423.7,3418.9,876.4,978.2,1459.8,1728.2,1442.4,1003.9,-69.0,331.0,-64.0,8486.0,8904.0,-6308.0,-8794.0,-2316.0,-71.0,-1412.0,-109.0,205.0,96.0,9895.0,6856.0,-4594.0,-10120.0,-2516.0,4.0,-377.0,1.0
2022-05-23 16:22:43.634433-07:00,2217.8,667.6,1441.5,1600.2,1207.1,1273.0,1411.3,1619.0,3431.0,3434.6,1641.6,1402.1,0.0,3429.8,1245.3,1718.6,3426.2,3426.2,741.4,1381.2,948.3,563.4,1185.9,2072.5,3423.7,3429.8,873.8,992.7,1459.8,1728.2,1442.4,1009.0,-57.0,88.0,-204.0,8838.0,8342.0,-5239.0,-9659.0,-3767.0,-357.0,-1350.0,-108.0,200.0,22.0,10279.0,6075.0,-3685.0,-10597.0,-3427.0,-125.0,-536.0,1.0
2022-05-23 16:22:43.664846-07:00,2217.8,661.1,1455.2,1610.5,1207.1,1273.0,1411.3,1703.3,3431.0,3427.4,1697.6,1403.0,0.0,3429.8,1245.3,1736.8,3422.5,3426.2,741.4,1381.2,953.4,561.0,1200.9,2072.5,3428.6,3429.8,873.8,992.7,1460.8,1735.8,1451.6,1009.0,115.0,-162.0,-215.0,9281.0,7307.0,-4174.0,-10558.0,-3732.0,-1066.0,-911.0,-70.0,-107.0,-171.0,10672.0,5038.0,-2589.0,-11066.0,-3806.0,-157.0,-443.0,1.0
2022-05-23 16:22:43.741588-07:00,2193.2,661.1,1455.2,1610.5,1200.9,1268.5,1474.6,1703.3,3426.2,3427.4,1697.6,1403.0,0.0,3426.2,1316.9,1736.8,3422.5,3423.7,731.5,1384.8,953.4,561.0,1200.9,2067.5,3428.6,3429.8,857.9,976.5,1460.8,1735.8,1451.6,1003.9,65.0,195.0,-119.0,9278.0,6506.0,-3356.0,-11347.0,-2535.0,-791.0,-1780.0,-21.0,102.0,-69.0,10894.0,4081.0,-1537.0,-11434.0,-3335.0,-52.0,-767.0,1.0
2022-05-23 16:22:43.784430-07:00,2193.2,661.9,1479.2,1606.8,1200.9,1268.5,1410.3,1636.9,3426.2,3429.8,1724.4,1410.3,0.0,3426.2,1390.3,1749.3,3420.1,3416.5,731.5,1384.8,953.4,574.6,1217.7,2067.5,3423.7,3428.6,857.9,976.5,1448.8,1736.8,1466.3,1003.9,-6.0,-101.0,-367.0,9256.0,5297.0,-2173.0,-12246.0,-4640.0,-1859.0,-1477.0,-19.0,145.0,-19.0,11006.0,2853.0,-236.0,-11795.0,-4509.0,-307.0,-932.0,1.0
2022-05-23 16:22:43.814402-07:00,2194.2,664.4,1479.2,1606.8,1204.4,1273.9,1410.3,1636.9,3420.1,3421.3,1724.4,1410.3,0.0,3431.0,1390.3,1749.3,3420.1,3416.5,730.7,1374.8,953.4,574.6,1239.1,2047.4,3423.7,3428.6,846.1,979.9,1448.8,1736.8,1564.6,1005.6,112.0,-314.0,-302.0,9476.0,3445.0,-1213.0,-12857.0,-3975.0,-2451.0,61.0,-24.0,3.0,-278.0,10941.0,1509.0,967.0,-12063.0,-3467.0,-443.0,-929.0,1.0
2022-05-23 16:22:43.874562-07:00,2194.2,664.4,1532.9,1614.3,1204.4,1273.9,1399.4,1634.1,3420.1,3421.3,1772.3,1414.0,0.0,3431.0,1471.8,1797.4,3421.3,3421.3,730.7,1374.8,963.7,577.0,1239.1,2047.4,3418.9,3428.6,846.1,979.9,1456.2,1785.8,1564.6,1005.6,25.0,-255.0,-311.0,9902.0,1710.0,-750.0,-12919.0,-3012.0,-2640.0,1047.0,11.0,-37.0,-218.0,10749.0,587.0,1696.0,-12234.0,-2045.0,-537.0,-834.0,1.0
2022-05-23 16:22:43.935032-07:00,2193.2,667.6,1532.9,1614.3,1205.3,1284.6,1399.4,1634.1,3426.2,3429.8,1772.3,1414.0,0.0,3434.6,1471.8,1797.4,3421.3,3421.3,735.6,1371.2,963.7,577.0,1249.7,2044.4,3418.9,3428.6,839.4,969.6,1456.2,1785.8,1640.7,1008.2,99.0,-153.0,-132.0,10289.0,123.0,-555.0,-12738.0,-2508.0,-2188.0,986.0,123.0,-52.0,-235.0,10559.0,-128.0,1997.0,-12367.0,-1319.0,-848.0,-704.0,1.0
2022-05-23 16:22:43.964395-07:00,2193.2,667.6,1698.6,1670.1,1205.3,1284.6,1382.1,1675.7,3426.2,3429.8,1797.4,1419.5,0.0,3434.6,1485.6,1805.2,3420.1,3423.7,735.6,1371.2,983.3,577.8,1249.7,2044.4,3417.7,3429.8,839.4,969.6,1455.2,1833.3,1640.7,1008.2,55.0,-164.0,-55.0,10495.0,-1104.0,-130.0,-12532.0,-2363.0,-1367.0,623.0,107.0,-97.0,-113.0,10383.0,-806.0,2199.0,-12456.0,-1286.0,-838.0,-561.0,1.0
2022-05-23 16:22:44.025043-07:00,2135.1,665.2,1799.4,1670.1,1209.7,1276.5,1382.1,1675.7,3423.7,3424.9,1821.6,1419.5,0.0,3429.8,1485.6,1805.2,3420.1,3423.7,731.5,1401.2,983.3,576.2,1256.0,2048.4,3417.7,3429.8,832.7,970.5,1455.2,1889.9,1694.8,1006.5,108.0,-145.0,0.0,10610.0,-2001.0,81.0,-12323.0,-1401.0,-1241.0,616.0,125.0,-5.0,-24.0,10255.0,-1326.0,2272.0,-12504.0,-675.0,-654.0,-367.0,1.0
2022-05-23 16:22:44.114609-07:00,2135.1,665.2,1799.4,1710.0,1209.7,1273.0,1368.5,1648.3,3423.7,3424.9,1821.6,1412.2,0.0,3426.2,1514.3,1848.9,3429.8,3421.3,721.6,1401.2,1006.5,576.2,1256.0,2048.4,3434.6,3429.8,827.7,970.5,1464.4,1889.9,1694.8,1006.5,46.0,-69.0,52.0,10737.0,-2731.0,280.0,-12067.0,-1310.0,-969.0,607.0,80.0,-56.0,38.0,10169.0,-1666.0,2329.0,-12523.0,-529.0,-431.0,-228.0,1.0
2022-05-23 16:22:44.117100-07:00,2118.9,665.2,1738.7,1710.0,1202.7,1273.0,1368.5,1648.3,3429.8,3429.8,1826.5,1412.2,0.0,3426.2,1514.3,1848.9,3429.8,3421.3,721.6,1437.8,1006.5,577.0,1267.6,2046.4,3434.6,3429.8,827.7,968.8,1464.4,1930.2,1727.2,1010.8,56.0,-48.0,61.0,10848.0,-3230.0,308.0,-11842.0,-422.0,-806.0,491.0,49.0,-22.0,12.0,10154.0,-1830.0,2276.0,-12523.0,44.0,-286.0,-12.0,1.0
2022-05-23 16:22:44.234979-07:00,2118.9,665.2,1738.7,1684.3,1202.7,1274.7,1353.1,1593.6,3429.8,3429.8,1826.5,1412.2,0.0,3423.7,1581.4,1898.7,3429.8,3416.5,725.8,1437.8,1021.1,577.0,1267.6,2046.4,3427.4,3424.9,821.9,968.8,1458.0,1930.2,1727.2,1010.8,13.0,24.0,33.0,10917.0,-3566.0,347.0,-11680.0,-578.0,-499.0,287.0,9.0,-17.0,36.0,10164.0,-1939.0,2219.0,-12508.0,-115.0,-287.0,-3.0,1.0
2022-05-23 16:22:44.327766-07:00,2106.8,659.5,1717.7,1684.3,1196.5,1274.7,1353.1,1593.6,3424.9,3437.0,1918.3,1412.2,0.0,3423.7,1581.4,1898.7,3429.8,3416.5,725.8,1449.7,1021.1,572.2,1252.4,2116.9,3427.4,3424.9,821.9,973.9,1458.0,1989.5,1800.3,1004.8,16.0,29.0,42.0,10983.0,-3717.0,259.0,-11573.0,181.0,-340.0,167.0,4.0,12.0,-9.0,10202.0,-1974.0,2128.0,-12487.0,206.0,-151.0,78.0,1.0
2022-05-23 16:22:44.328846-07:00,2106.8,659.5,1717.7,1681.4,1196.5,1271.2,1335.9,1571.1,3424.9,3437.0,1918.3,1456.2,0.0,3423.7,1650.2,1995.5,3422.5,3429.8,716.7,1449.7,1023.7,572.2,1252.4,2116.9,3432.2,3426.2,812.7,973.9,1456.2,1989.5,1800.3,1004.8,15.0,9.0,-17.0,11020.0,-3842.0,225.0,-11497.0,-353.0,-333.0,199.0,13.0,31.0,-5.0,10217.0,-2008.0,2060.0,-12481.0,-67.0,-205.0,-35.0,1.0
2022-05-23 16:22:44.329586-07:00,2089.6,651.4,1710.0,1684.3,1196.5,1271.2,1335.9,1571.1,3429.8,3428.6,2085.6,1534.8,0.0,3423.7,1650.2,1995.5,3422.5,3429.8,716.7,1447.0,1020.2,571.4,1248.8,2279.6,3432.2,3426.2,812.7,967.1,1465.4,2091.6,1849.8,1003.0,-30.0,-6.0,-1.0,11052.0,-4052.0,284.0,-11392.0,-407.0,-299.0,210.0,6.0,-40.0,-7.0,10217.0,-2108.0,2038.0,-12468.0,-59.0,-205.0,-19.0,1.0
2022-05-23 16:22:44.414448-07:00,2089.6,651.4,1710.0,1684.3,1195.6,1277.4,1374.8,1622.8,3429.8,3428.6,2085.6,1534.8,0.0,3416.5,1657.7,2110.8,3421.3,3418.9,717.5,1468.1,1020.2,571.4,1248.8,2279.6,3427.4,3429.8,822.7,965.4,1465.4,2091.6,1849.8,1003.0,-12.0,-131.0,67.0,11017.0,-4390.0,265.0,-11301.0,-336.0,-731.0,-56.0,-1.0,-60.0,3.0,10221.0,-2179.0,1903.0,-12474.0,308.0,-300.0,-5.0,1.0
2022-05-23 16:22:44.474575-07:00,2078.5,657.0,1745.4,1698.6,1195.6,1277.4,1374.8,1622.8,3428.6,3427.4,2226.0,1637.9,0.0,3416.5,1657.7,2110.8,3421.3,3418.9,717.5,1468.1,1032.3,569.8,1274.7,2305.6,3427.4,3429.8,822.7,965.4,1470.9,2176.9,1892.8,1001.3,17.0,53.0,115.0,10995.0,-4294.0,120.0,-11362.0,283.0,304.0,-311.0,-11.0,22.0,34.0,10269.0,-2050.0,1713.0,-12484.0,609.0,24.0,51.0,1.0
2022-05-23 16:22:44.534425-07:00,2078.5,657.0,1745.4,1698.6,1231.9,1287.3,1434.1,1619.0,3428.6,3427.4,2226.0,1637.9,37.4,3431.0,1614.3,2263.1,3424.9,3416.5,720.8,1481.0,1032.3,569.8,1274.7,2305.6,3428.6,3429.8,833.6,968.8,1470.9,2176.9,1892.8,1001.3,-16.0,-5.0,5.0,11000.0,-4306.0,26.0,-11353.0,267.0,-249.0,109.0,-8.0,40.0,-28.0,10326.0,-1937.0,1564.0,-12474.0,408.0,20.0,177.0,1.0
2022-05-23 16:22:44.565163-07:00,2189.1,653.0,1737.8,1697.6,1231.9,1287.3,1434.1,1619.0,3429.8,3427.4,2304.5,1713.8,37.4,3431.0,1614.3,2263.1,3424.9,3416.5,720.8,1481.0,1034.9,569.8,1297.2,2371.3,3428.6,3429.8,833.6,968.8,1563.7,2139.2,1838.2,1006.5,57.0,-22.0,46.0,11022.0,-4238.0,10.0,-11357.0,147.0,376.0,28.0,62.0,63.0,-58.0,10379.0,-1864.0,1499.0,-12450.0,-91.0,99.0,122.0,1.0
2022-05-23 16:22:44.594472-07:00,2214.7,653.0,1737.8,1697.6,1219.5,1284.6,1470.0,1572.1,3429.8,3427.4,2304.5,1713.8,0.0,3423.7,1551.5,2266.2,3421.3,3429.8,710.1,1515.3,1034.9,569.8,1297.2,2332.6,3428.6,3431.0,841.1,962.8,1563.7,2139.2,1838.2,1044.4,3.0,-68.0,-28.0,11043.0,-4073.0,184.0,-11395.0,49.0,565.0,-4.0,64.0,-110.0,4.0,10396.0,-1883.0,1624.0,-12417.0,-187.0,124.0,97.0,1.0
2022-05-23 16:22:44.624596-07:00,2214.7,652.2,1758.9,1731.1,1219.5,1284.6,1470.0,1549.7,3429.8,3421.3,2267.2,1711.9,0.0,3423.7,1551.5,2221.9,3424.9,3429.8,710.1,1515.3,1029.7,565.0,1302.5,2332.6,3432.2,3431.0,841.1,962.8,1600.2,2106.8,1803.2,1044.4,22.0,-173.0,-15.0,11076.0,-3808.0,138.0,-11456.0,786.0,275.0,-17.0,88.0,-89.0,42.0,10449.0,-1809.0,1653.0,-12380.0,364.0,220.0,310.0,1.0
2022-05-23 16:22:44.684643-07:00,2192.2,652.2,1758.9,1731.1,1222.2,1288.2,1475.5,1549.7,3418.9,3421.3,2267.2,1711.9,0.0,3420.1,1522.7,2221.9,3424.9,3426.2,715.1,1492.1,1029.7,565.0,1302.5,2290.0,3432.2,3432.2,836.1,962.8,1600.2,2106.8,1803.2,1043.5,68.0,-78.0,-23.0,11115.0,-3409.0,34.0,-11544.0,811.0,665.0,-177.0,117.0,15.0,14.0,10566.0,-1590.0,1619.0,-12315.0,421.0,367.0,410.0,1.0
2022-05-23 16:22:44.715138-07:00,2192.2,647.3,1961.8,1881.1,1222.2,1288.2,1475.5,1530.1,3418.9,3428.6,2234.2,1702.4,0.0,3420.1,1522.7,2194.2,3421.3,3426.2,715.1,1492.1,1019.4,562.6,1305.2,2290.0,3423.7,3432.2,836.1,962.8,1603.0,2095.7,1782.9,1043.5,23.0,-75.0,-66.0,11200.0,-2912.0,-96.0,-11597.0,1141.0,607.0,52.0,76.0,-22.0,-35.0,10740.0,-1278.0,1595.0,-12203.0,563.0,497.0,646.0,1.0
2022-05-23 16:22:44.775300-07:00,2175.8,647.3,1961.8,1881.1,1373.0,1310.6,1457.1,1530.1,3434.6,3428.6,2234.2,1702.4,0.0,3422.5,1518.0,2194.2,3421.3,3417.7,715.1,1489.3,1019.4,562.6,1305.2,2274.5,3423.7,3428.6,835.2,963.7,1603.0,2095.7,1782.9,1049.6,11.0,88.0,-86.0,11281.0,-2472.0,-249.0,-11619.0,979.0,456.0,-93.0,21.0,21.0,-70.0,10934.0,-976.0,1598.0,-12058.0,481.0,326.0,525.0,1.0
2022-05-23 16:22:44.834532-07:00,2175.8,650.5,1904.6,1932.1,1373.0,1310.6,1447.9,1533.8,3434.6,3429.8,2218.8,1688.1,0.0,3422.5,1508.8,2187.1,3418.9,3420.1,715.1,1489.3,1007.3,561.8,1305.2,2274.5,3424.9,3422.5,835.2,963.7,1593.6,2080.6,1779.1,1049.6,17.0,-84.0,-70.0,11286.0,-2121.0,-411.0,-11679.0,1319.0,343.0,-111.0,57.0,4.0,-50.0,11091.0,-670.0,1495.0,-11948.0,1027.0,342.0,577.0,1.0
2022-05-23 16:22:44.864475-07:00,2160.5,638.4,1904.6,1932.1,1423.1,1335.9,1447.9,1533.8,3432.2,3439.5,2218.8,1688.1,0.0,3424.9,1508.8,2187.1,3418.9,3420.1,713.4,1474.6,1007.3,561.8,1318.7,2260.0,3424.9,3422.5,836.1,962.8,1593.6,2080.6,1780.1,1045.2,28.0,-145.0,-89.0,11342.0,-1546.0,-783.0,-11696.0,2239.0,444.0,-79.0,93.0,-49.0,-98.0,11305.0,-151.0,1202.0,-11796.0,1829.0,409.0,907.0,1.0
2022-05-23 16:22:44.925168-07:00,2160.5,638.4,1874.2,1933.1,1423.1,1335.9,1454.3,1532.0,3432.2,3439.5,2198.3,1679.5,0.0,3424.9,1498.6,2189.1,3414.1,3418.9,713.4,1474.6,1013.3,566.6,1318.7,2260.0,3428.6,3437.0,836.1,962.8,1529.2,2072.5,1780.1,1045.2,73.0,22.0,-154.0,11473.0,-606.0,-1440.0,-11592.0,2773.0,709.0,436.0,73.0,97.0,-206.0,11620.0,620.0,761.0,-11509.0,2028.0,650.0,1304.0,1.0
2022-05-23 16:22:44.984520-07:00,2148.3,640.8,1874.2,1933.1,1430.5,1339.5,1454.3,1532.0,3418.9,3423.7,2198.3,1679.5,0.0,3429.8,1498.6,2189.1,3414.1,3418.9,711.8,1454.3,1013.3,566.6,1314.2,2237.3,3428.6,3437.0,831.9,958.5,1529.2,2072.5,1766.6,1029.7,-102.0,-177.0,-261.0,11622.0,481.0,-2051.0,-11355.0,3584.0,530.0,309.0,-32.0,-143.0,-97.0,11925.0,1551.0,199.0,-11126.0,3500.0,465.0,1239.0,1.0
2022-05-23 16:22:45.074287-07:00,2148.3,640.8,1834.3,1894.8,1430.5,1339.5,1484.7,1532.0,3418.9,3423.7,2187.1,1673.8,0.0,3429.8,1489.3,2164.6,3421.3,3421.3,711.8,1454.3,1009.9,558.6,1314.2,2237.3,3427.4,3428.6,831.9,958.5,1509.7,2056.4,1766.6,1029.7,-86.0,145.0,-294.0,11612.0,1811.0,-3302.0,-10927.0,4871.0,-272.0,341.0,-128.0,53.0,-199.0,12011.0,2974.0,-926.0,-10699.0,4539.0,290.0,887.0,1.0
2022-05-23 16:22:45.255052-07:00,2128.0,643.2,1834.3,1894.8,1413.1,1319.6,1484.7,1532.0,3422.5,3427.4,2187.1,1673.8,0.0,3422.5,1489.3,2164.6,3421.3,3421.3,717.5,1448.8,1009.9,558.6,1310.6,2222.9,3427.4,3428.6,839.4,962.8,1509.7,2056.4,1763.7,1039.2,64.0,347.0,-76.0,11375.0,3067.0,-4651.0,-10393.0,3393.0,-124.0,263.0,-90.0,255.0,-61.0,11827.0,4272.0,-2069.0,-10297.0,3063.0,1.0,519.0,1.0
2022-05-23 16:22:45.314362-07:00,2128.0,643.2,1817.8,1877.2,1413.1,1316.0,1484.7,1529.2,3422.5,3427.4,2174.8,1669.1,0.0,3427.4,1483.8,2144.3,3416.5,3433.4,720.8,1448.8,1004.8,555.4,1310.6,2222.9,3429.8,3423.7,838.6,962.8,1493.0,2044.4,1763.7,1039.2,56.0,274.0,59.0,11221.0,3805.0,-5296.0,-10000.0,1337.0,468.0,29.0,-76.0,170.0,31.0,11665.0,4897.0,-2735.0,-10045.0,1084.0,-196.0,277.0,1.0
2022-05-23 16:22:45.525100-07:00,2109.8,644.0,1803.2,1877.2,1397.6,1316.0,1484.7,1529.2,3424.9,3431.0,2174.8,1669.1,0.0,3427.4,1483.8,2144.3,3416.5,3433.4,720.8,1444.2,1004.8,557.8,1302.5,2209.6,3429.8,3423.7,838.6,963.7,1493.0,2029.4,1740.6,1040.1,-31.0,85.0,9.0,11184.0,4226.0,-5402.0,-9813.0,751.0,354.0,20.0,-74.0,62.0,94.0,11597.0,5059.0,-3033.0,-9958.0,612.0,-263.0,124.0,1.0
2022-05-23 16:22:45.585065-07:00,2109.8,644.0,1803.2,1876.2,1397.6,1308.8,1481.0,1545.9,3424.9,3431.0,2174.8,1671.0,0.0,3422.5,1479.2,2130.1,3422.5,3422.5,722.5,1444.2,1002.2,557.8,1302.5,2209.6,3426.2,3418.9,836.9,963.7,1484.7,2029.4,1740.6,1040.1,-41.0,77.0,36.0,11138.0,4538.0,-5587.0,-9622.0,1014.0,43.0,189.0,-58.0,19.0,79.0,11459.0,5231.0,-3395.0,-9911.0,805.0,-327.0,19.0,1.0
2022-05-23 16:22:45.586122-07:00,2098.7,638.4,1792.6,1876.2,1400.3,1308.8,1481.0,1545.9,3426.2,3423.7,2190.1,1671.0,0.0,3422.5,1479.2,2130.1,3422.5,3422.5,722.5,1436.9,1002.2,557.0,1321.4,2212.7,3426.2,3418.9,836.9,961.1,1484.7,2014.4,1742.6,1053.0,-80.0,68.0,68.0,11088.0,4711.0,-5806.0,-9465.0,303.0,-182.0,220.0,-88.0,13.0,109.0,11354.0,5335.0,-3619.0,-9898.0,518.0,-241.0,15.0,1.0
2022-05-23 16:22:45.587023-07:00,2098.7,638.4,1792.6,1876.2,1400.3,1305.2,1491.2,1567.4,3426.2,3423.7,2190.1,1681.4,0.0,3421.3,1474.6,2114.9,3431.0,3424.9,718.4,1436.9,994.5,557.0,1321.4,2212.7,3433.4,3427.4,843.6,961.1,1482.9,2014.4,1742.6,1053.0,-27.0,35.0,81.0,11074.0,4708.0,-5909.0,-9420.0,188.0,-160.0,97.0,-43.0,-19.0,63.0,11278.0,5410.0,-3769.0,-9887.0,328.0,-134.0,15.0,1.0
2022-05-23 16:22:45.588505-07:00,2078.5,635.9,1783.9,1869.3,1381.2,1305.2,1491.2,1567.4,3424.9,3423.7,2180.9,1671.0,0.0,3421.3,1474.6,2114.9,3431.0,3424.9,718.4,1435.0,988.5,552.2,1318.7,2212.7,3433.4,3427.4,843.6,955.1,1478.3,2007.4,1720.5,1051.3,17.0,58.0,60.0,11045.0,4742.0,-5979.0,-9392.0,108.0,41.0,-67.0,-18.0,39.0,50.0,11232.0,5459.0,-3865.0,-9876.0,104.0,-51.0,-25.0,1.0
2022-05-23 16:22:45.589747-07:00,2078.5,635.9,1783.9,1869.3,1381.2,1305.2,1491.2,1567.4,3424.9,3423.7,2180.9,1671.0,0.0,3421.3,1474.6,2114.9,3431.0,3424.9,718.4,1435.0,988.5,552.2,1318.7,2212.7,3433.4,3427.4,843.6,955.1,1478.3,2007.4,1720.5,1051.3,17.0,58.0,60.0,11045.0,4742.0,-5979.0,-9392.0,108.0,41.0,-67.0,-18.0,39.0,50.0,11232.0,5459.0,-3865.0,-9876.0,104.0,-51.0,-25.0,1.0
2022-05-23 16:22:45.615128-07:00,2089.6,634.3,1779.1,1862.5,1374.8,1304.3,1447.0,1598.3,3423.7,3414.1,2148.3,1667.2,0.0,3420.1,1465.4,2101.7,3422.5,3422.5,722.5,1434.1,988.5,542.6,1306.1,2204.5,3414.1,3428.6,831.1,952.6,1473.6,1997.5,1731.1,1059.9,18.0,-6.0,22.0,11015.0,4796.0,-5958.0,-9414.0,-228.0,205.0,35.0,-2.0,-15.0,16.0,11205.0,5498.0,-3872.0,-9882.0,-209.0,32.0,64.0,1.0
2022-05-23 16:22:45.675030-07:00,2070.5,640.8,1771.4,1859.6,1374.8,1304.3,1447.0,1589.9,3434.6,3431.0,2144.3,1656.8,0.0,3420.1,1465.4,2101.7,3435.8,3422.5,722.5,1434.1,978.2,554.6,1310.6,2192.2,3428.6,3428.6,831.1,952.6,1470.0,2006.4,1720.5,1056.5,5.0,25.0,-3.0,11057.0,4813.0,-5907.0,-9386.0,84.0,9.0,67.0,-8.0,3.0,41.0,11240.0,5477.0,-3835.0,-9869.0,50.0,78.0,31.0,1.0
2022-05-23 16:22:45.944502-07:00,2070.5,640.8,1771.4,1859.6,1375.7,1296.3,1452.5,1589.9,3427.4,3431.0,2144.3,1656.8,0.0,3415.3,1462.6,2101.7,3435.8,3426.2,716.7,1426.8,978.2,554.6,1310.6,2193.2,3428.6,3428.6,839.4,949.2,1470.0,2006.4,1720.5,1057.3,26.0,25.0,13.0,11066.0,4812.0,-5919.0,-9370.0,-68.0,18.0,34.0,-12.0,4.0,-11.0,11247.0,5500.0,-3823.0,-9852.0,-78.0,41.0,15.0,1.0
2022-05-23 16:22:45.945939-07:00,2070.5,630.3,1759.8,1849.8,1375.7,1296.3,1452.5,1589.9,3427.4,3434.6,2133.1,1654.9,0.0,3415.3,1462.6,2098.7,3426.2,3426.2,716.7,1426.8,977.3,551.4,1305.2,2193.2,3427.4,3428.6,839.4,949.2,1453.4,1995.5,1716.7,1057.3,8.0,-21.0,-1.0,11092.0,4804.0,-5854.0,-9384.0,-88.0,128.0,-74.0,-4.0,-17.0,23.0,11271.0,5469.0,-3781.0,-9859.0,-103.0,28.0,-19.0,1.0
2022-05-23 16:22:45.946902-07:00,2071.5,630.3,1759.8,1849.8,1370.3,1285.5,1457.1,1589.9,3428.6,3434.6,2133.1,1654.9,0.0,3429.8,1467.2,2098.7,3426.2,3429.8,714.2,1425.0,977.3,551.4,1305.2,2195.2,3427.4,3418.9,826.9,952.6,1453.4,1995.5,1716.7,1072.9,13.0,18.0,-1.0,11085.0,4818.0,-5849.0,-9388.0,-4.0,-33.0,9.0,-20.0,15.0,6.0,11276.0,5467.0,-3757.0,-9864.0,-74.0,36.0,0.0,1.0
2022-05-23 16:22:45.947870-07:00,2071.5,634.3,1760.8,1851.8,1370.3,1285.5,1457.1,1574.9,3428.6,3432.2,2129.0,1654.9,0.0,3429.8,1467.2,2100.7,3423.7,3429.8,714.2,1425.0,977.3,549.8,1299.0,2195.2,3418.9,3418.9,826.9,952.6,1460.8,1986.6,1711.9,1072.9,14.0,-8.0,0.0,11117.0,4761.0,-5795.0,-9412.0,-272.0,66.0,6.0,-10.0,-19.0,-8.0,11304.0,5427.0,-3706.0,-9873.0,-237.0,29.0,19.0,1.0
2022-05-23 16:22:46.064306-07:00,2075.5,627.0,1760.8,1851.8,1369.4,1296.3,1446.0,1574.9,3432.2,3428.6,2129.0,1654.9,0.0,3429.8,1469.0,2100.7,3423.7,3428.6,715.1,1418.6,977.3,549.8,1305.2,2184.0,3418.9,3439.5,826.9,939.8,1460.8,1986.6,1713.8,1058.2,2.0,-14.0,-18.0,11155.0,4717.0,-5726.0,-9432.0,-137.0,24.0,28.0,-11.0,-6.0,22.0,11342.0,5371.0,-3646.0,-9882.0,-103.0,34.0,27.0,1.0
2022-05-23 16:22:46.065541-07:00,2075.5,627.0,1755.0,1851.8,1369.4,1296.3,1439.6,1573.9,3432.2,3428.6,2125.0,1653.0,0.0,3429.8,1465.4,2089.6,3422.5,3418.9,715.1,1418.6,981.6,550.6,1305.2,2184.0,3422.5,3432.2,826.9,939.8,1451.6,1986.6,1713.8,1058.2,50.0,26.0,1.0,11165.0,4682.0,-5725.0,-9438.0,-67.0,-8.0,-18.0,0.0,21.0,-16.0,11354.0,5362.0,-3631.0,-9878.0,-74.0,8.0,-15.0,1.0
2022-05-23 16:22:46.066412-07:00,2079.5,623.8,1755.0,1851.8,1360.3,1287.3,1439.6,1573.9,3422.5,3429.8,2125.0,1653.0,0.0,3420.1,1465.4,2089.6,3422.5,3418.9,712.6,1423.1,981.6,550.6,1301.6,2186.0,3422.5,3432.2,825.2,955.1,1451.6,1986.6,1711.9,1084.2,11.0,22.0,-5.0,11176.0,4669.0,-5678.0,-9460.0,-150.0,49.0,-52.0,-17.0,2.0,12.0,11367.0,5328.0,-3593.0,-9896.0,-171.0,12.0,-23.0,1.0
2022-05-23 16:22:46.068271-07:00,2079.5,623.8,1758.9,1833.3,1360.3,1287.3,1445.1,1564.6,3422.5,3429.8,2127.0,1660.6,0.0,3420.1,1452.5,2091.6,3416.5,3426.2,712.6,1423.1,977.3,546.6,1301.6,2186.0,3421.3,3432.2,825.2,955.1,1458.9,1987.5,1711.9,1084.2,0.0,26.0,14.0,11194.0,4627.0,-5609.0,-9501.0,-232.0,41.0,-24.0,-35.0,12.0,16.0,11389.0,5273.0,-3528.0,-9924.0,-247.0,23.0,-21.0,1.0
2022-05-23 16:22:46.124558-07:00,2063.5,625.4,1758.9,1833.3,1357.6,1281.0,1445.1,1564.6,3429.8,3429.8,2127.0,1660.6,0.0,3426.2,1452.5,2091.6,3416.5,3426.2,711.0,1416.7,977.3,546.6,1307.0,2187.1,3421.3,3432.2,822.7,950.9,1458.9,1987.5,1715.8,1057.3,-3.0,103.0,25.0,11266.0,4508.0,-5431.0,-9576.0,-847.0,232.0,-117.0,-42.0,44.0,35.0,11463.0,5118.0,-3369.0,-9974.0,-860.0,31.0,-19.0,1.0
2022-05-23 16:22:46.304561-07:00,2063.5,625.4,1753.1,1837.2,1357.6,1281.0,1436.9,1575.8,3429.8,3429.8,2122.0,1651.1,0.0,3426.2,1455.2,2083.6,3409.3,3422.5,711.0,1416.7,969.6,545.0,1307.0,2187.1,3414.1,3424.9,822.7,950.9,1456.2,1981.6,1715.8,1057.3,-68.0,-1.0,10.0,11386.0,4236.0,-5058.0,-9760.0,-1232.0,95.0,-138.0,-64.0,-16.0,90.0,11607.0,4785.0,-3050.0,-10075.0,-1175.0,47.0,-38.0,1.0
2022-05-23 16:22:46.365008-07:00,2062.5,638.4,1751.2,1837.2,1354.0,1293.6,1436.9,1575.8,3428.6,3416.5,2110.8,1651.1,0.0,3427.4,1455.2,2083.6,3409.3,3422.5,716.7,1422.2,969.6,547.4,1299.8,2187.1,3414.1,3424.9,824.4,953.4,1456.2,1992.5,1715.8,1059.9,10.0,41.0,47.0,11460.0,3887.0,-4796.0,-9950.0,-990.0,-169.0,-184.0,-42.0,-52.0,-4.0,11726.0,4487.0,-2753.0,-10160.0,-932.0,35.0,-60.0,1.0
2022-05-23 16:22:46.366129-07:00,2062.5,638.4,1751.2,1835.2,1354.0,1290.0,1438.7,1559.0,3428.6,3416.5,2110.8,1650.2,0.0,3426.2,1456.2,2094.7,3424.9,3420.1,711.0,1422.2,975.6,547.4,1299.8,2187.1,3422.5,3422.5,821.0,953.4,1449.7,1992.5,1715.8,1059.9,-2.0,24.0,20.0,11434.0,3738.0,-4524.0,-10162.0,-561.0,252.0,-525.0,-47.0,0.0,8.0,11782.0,4221.0,-2511.0,-10271.0,-858.0,-30.0,-201.0,1.0
2022-05-23 16:22:46.634557-07:00,2076.5,626.2,1757.0,1835.2,1341.3,1290.0,1438.7,1559.0,3422.5,3423.7,2114.9,1650.2,0.0,3426.2,1456.2,2094.7,3424.9,3420.1,711.0,1420.4,975.6,550.6,1296.3,2176.9,3422.5,3422.5,821.0,950.9,1449.7,1991.5,1725.3,1049.6,-8.0,164.0,19.0,11420.0,3632.0,-4169.0,-10366.0,-1251.0,312.0,-432.0,-77.0,122.0,60.0,11868.0,3850.0,-2141.0,-10400.0,-1676.0,48.0,-149.0,1.0
2022-05-23 16:22:46.637233-07:00,2076.5,626.2,1757.0,1829.4,1341.3,1283.7,1450.6,1547.8,3422.5,3423.7,2114.9,1641.6,0.0,3420.1,1458.9,2097.7,3428.6,3420.1,712.6,1420.4,971.3,550.6,1296.3,2176.9,3428.6,3424.9,831.9,950.9,1444.2,1991.5,1725.3,1049.6,14.0,131.0,-35.0,11508.0,3085.0,-3465.0,-10700.0,-2530.0,131.0,-458.0,-70.0,97.0,30.0,12029.0,3127.0,-1479.0,-10572.0,-2544.0,-55.0,-252.0,1.0
2022-05-23 16:22:46.725451-07:00,2056.4,618.9,1765.6,1829.4,1335.9,1283.7,1450.6,1547.8,3429.8,3418.9,2101.7,1641.6,0.0,3420.1,1458.9,2097.7,3428.6,3420.1,712.6,1426.8,971.3,549.8,1292.7,2175.8,3428.6,3424.9,831.9,945.8,1444.2,2011.4,1744.5,1054.8,-33.0,51.0,-68.0,11612.0,2275.0,-2691.0,-11008.0,-2573.0,-278.0,-172.0,-81.0,28.0,33.0,12119.0,2280.0,-731.0,-10763.0,-2621.0,-116.0,-374.0,1.0
2022-05-23 16:22:46.726482-07:00,2056.4,618.9,1765.6,1810.0,1333.2,1302.5,1465.4,1545.9,3429.8,3418.9,2101.7,1637.9,0.0,3422.5,1464.4,2092.6,3421.3,3418.9,710.1,1426.8,968.8,549.8,1292.7,2175.8,3431.0,3431.0,832.7,947.5,1453.4,2011.4,1744.5,1054.8,61.0,134.0,-66.0,11631.0,1417.0,-2123.0,-11254.0,-2359.0,-443.0,-304.0,-6.0,42.0,-69.0,12097.0,1481.0,-63.0,-10950.0,-2229.0,-125.0,-571.0,1.0
2022-05-23 16:22:46.785249-07:00,2049.4,627.0,1761.8,1813.9,1333.2,1302.5,1465.4,1545.9,3429.8,3432.2,2102.7,1636.0,0.0,3422.5,1464.4,2092.6,3421.3,3418.9,710.1,1426.8,973.1,549.8,1283.7,2176.9,3431.0,3431.0,832.7,947.5,1464.4,2026.4,1773.3,1056.5,12.0,-30.0,-116.0,11567.0,656.0,-1526.0,-11484.0,-2087.0,-262.0,-357.0,-11.0,-19.0,-113.0,11980.0,773.0,486.0,-11139.0,-1702.0,-207.0,-676.0,1.0
2022-05-23 16:22:46.786337-07:00,2049.4,627.0,1761.8,1813.9,1315.1,1309.7,1445.1,1539.4,3429.8,3432.2,2102.7,1636.0,0.0,3424.9,1468.1,2103.7,3423.7,3429.8,701.9,1417.6,973.1,549.8,1283.7,2176.9,3435.8,3434.6,852.0,947.5,1464.4,2026.4,1773.3,1056.5,29.0,-35.0,-84.0,11175.0,-602.0,-480.0,-11957.0,-955.0,-338.0,-239.0,42.0,15.0,-49.0,11421.0,-587.0,1324.0,-11657.0,-837.0,-257.0,-489.0,1.0
2022-05-23 16:22:46.787355-07:00,2038.4,628.6,1768.5,1802.3,1307.0,1306.1,1443.3,1552.5,3427.4,3432.2,2084.6,1630.3,0.0,3418.9,1463.5,2102.7,3416.5,3429.8,700.3,1418.6,975.6,547.4,1267.6,2178.9,3426.2,3434.6,854.5,943.2,1457.1,2018.4,1751.2,1059.1,56.0,-35.0,-56.0,11081.0,-1015.0,-262.0,-12023.0,-1020.0,-348.0,-217.0,76.0,-21.0,-51.0,11272.0,-927.0,1480.0,-11762.0,-727.0,-260.0,-435.0,1.0
2022-05-23 16:22:46.788081-07:00,2038.4,628.6,1768.5,1802.3,1307.0,1306.1,1443.3,1552.5,3427.4,3432.2,2084.6,1630.3,0.0,3418.9,1463.5,2102.7,3416.5,3429.8,700.3,1418.6,975.6,547.4,1267.6,2178.9,3426.2,3434.6,854.5,943.2,1457.1,2018.4,1751.2,1059.1,56.0,-35.0,-56.0,11081.0,-1015.0,-262.0,-12023.0,-1020.0,-348.0,-217.0,76.0,-21.0,-51.0,11272.0,-927.0,1480.0,-11762.0,-727.0,-260.0,-435.0,1.0
2022-05-23 16:22:46.845070-07:00,2048.4,626.2,1758.9,1808.1,1295.4,1308.8,1429.5,1582.4,3429.8,3428.6,2087.6,1619.0,0.0,3423.7,1470.9,2101.7,3429.8,3420.1,697.0,1414.0,973.9,548.2,1262.2,2172.8,3429.8,3427.4,861.2,940.7,1453.4,2015.4,1754.1,1056.5,28.0,-96.0,-83.0,10901.0,-1391.0,-1.0,-12152.0,-594.0,-17.0,-138.0,44.0,-49.0,-11.0,11031.0,-1250.0,1628.0,-11939.0,-374.0,-87.0,-302.0,1.0
2022-05-23 16:22:46.874714-07:00,2071.5,626.2,1758.9,1808.1,1295.4,1310.6,1429.5,1582.4,3428.6,3428.6,2087.6,1619.0,0.0,3424.9,1468.1,2101.7,3429.8,3418.9,701.1,1413.1,973.9,548.2,1262.2,2174.8,3429.8,3417.7,867.1,937.3,1453.4,2015.4,1754.1,1053.0,1.0,-62.0,-49.0,10895.0,-1577.0,103.0,-12135.0,-373.0,-234.0,84.0,37.0,-37.0,-28.0,10963.0,-1331.0,1669.0,-11987.0,-115.0,-71.0,-177.0,1.0
2022-05-23 16:22:46.904554-07:00,2071.5,625.4,1767.5,1810.0,1295.4,1310.6,1429.5,1595.5,3428.6,3424.9,2085.6,1620.9,0.0,3424.9,1468.1,2127.0,3423.7,3418.9,701.1,1413.1,975.6,547.4,1254.2,2174.8,3429.8,3417.7,867.1,937.3,1452.5,2019.4,1741.6,1053.0,37.0,-24.0,10.0,10914.0,-1710.0,128.0,-12099.0,-152.0,-135.0,62.0,33.0,-12.0,-30.0,10914.0,-1406.0,1671.0,-12023.0,-53.0,-62.0,-137.0,1.0
2022-05-23 16:22:46.994350-07:00,2138.2,625.4,1767.5,1810.0,1316.9,1299.0,1425.0,1595.5,3418.9,3424.9,2085.6,1620.9,0.0,3426.2,1488.4,2127.0,3423.7,3433.4,700.3,1419.5,975.6,547.4,1254.2,2167.7,3429.8,3427.4,855.3,942.4,1452.5,2019.4,1741.6,1075.6,51.0,-58.0,92.0,10919.0,-1713.0,207.0,-12093.0,-217.0,308.0,35.0,63.0,-25.0,44.0,10871.0,-1460.0,1712.0,-12049.0,-238.0,46.0,-87.0,1.0
2022-05-23 16:22:47.054433-07:00,2138.2,635.1,1794.5,1809.0,1316.9,1299.0,1433.2,1654.9,3418.9,3431.0,2111.8,1620.9,0.0,3426.2,1539.4,2209.6,3426.2,3417.7,700.3,1419.5,970.5,546.6,1253.3,2167.7,3429.8,3424.9,855.3,942.4,1436.0,2111.8,1812.9,1075.6,-11.0,-99.0,30.0,10937.0,-1647.0,322.0,-12083.0,387.0,184.0,-7.0,33.0,-89.0,28.0,10876.0,-1422.0,1751.0,-12044.0,383.0,160.0,47.0,1.0
2022-05-23 16:22:47.056318-07:00,2114.9,631.1,1794.5,1809.0,1278.3,1298.1,1433.2,1654.9,3426.2,3416.5,2111.8,1620.9,0.0,3429.8,1539.4,2209.6,3426.2,3417.7,703.6,1398.5,970.5,546.6,1240.8,2177.9,3429.8,3424.9,848.6,946.6,1436.0,2111.8,1832.3,1062.5,115.0,60.0,59.0,10988.0,-1376.0,243.0,-12072.0,620.0,855.0,169.0,34.0,13.0,-13.0,10913.0,-1218.0,1736.0,-12035.0,232.0,430.0,118.0,1.0
2022-05-23 16:22:47.114553-07:00,2114.9,631.1,1840.1,1802.3,1278.3,1298.1,1438.7,1630.3,3426.2,3416.5,2122.0,1604.9,0.0,3429.8,1679.5,2263.1,3416.5,3431.0,703.6,1398.5,966.2,544.2,1240.8,2177.9,3434.6,3426.2,848.6,946.6,1432.3,2103.7,1832.3,1062.5,8.0,-16.0,12.0,11011.0,-854.0,331.0,-12098.0,896.0,1040.0,-56.0,-5.0,19.0,28.0,10914.0,-983.0,1743.0,-12055.0,482.0,408.0,10.0,1.0
2022-05-23 16:22:47.174675-07:00,2070.5,623.0,1840.1,1802.3,1259.6,1299.8,1438.7,1630.3,3418.9,3427.4,2122.0,1604.9,0.0,3432.2,1679.5,2263.1,3416.5,3431.0,699.5,1412.2,966.2,544.2,1236.4,2211.6,3434.6,3426.2,852.0,941.5,1432.3,2103.7,1846.9,1056.5,9.0,15.0,-37.0,11028.0,-338.0,359.0,-12107.0,584.0,729.0,145.0,12.0,-66.0,43.0,10928.0,-720.0,1709.0,-12065.0,585.0,354.0,81.0,1.0
2022-05-23 16:22:47.204538-07:00,2070.5,623.0,1892.8,1822.6,1259.6,1299.8,1411.3,1610.5,3418.9,3427.4,2146.3,1588.0,0.0,3432.2,1729.1,2231.1,3423.7,3418.9,699.5,1412.2,967.1,548.2,1236.4,2211.6,3429.8,3431.0,852.0,941.5,1458.9,2125.0,1846.9,1056.5,48.0,-81.0,70.0,11040.0,139.0,172.0,-12104.0,2327.0,417.0,7.0,26.0,33.0,-104.0,10959.0,-163.0,1281.0,-12111.0,1910.0,411.0,144.0,1.0
2022-05-23 16:22:47.294428-07:00,2068.5,623.0,1799.4,1822.6,1248.0,1285.5,1411.3,1610.5,3418.9,3431.0,2081.6,1588.0,0.0,3428.6,1729.1,2231.1,3423.7,3418.9,697.9,1411.3,967.1,545.8,1233.7,2284.8,3429.8,3431.0,865.4,947.5,1458.9,2052.4,1757.0,1054.8,4.0,23.0,2.0,11034.0,958.0,-263.0,-12071.0,1387.0,876.0,8.0,46.0,-59.0,87.0,11001.0,413.0,927.0,-12099.0,1470.0,345.0,166.0,1.0
2022-05-23 16:22:47.326970-07:00,2068.5,623.0,1799.4,1768.5,1248.0,1278.3,1413.1,1605.8,3418.9,3431.0,2081.6,1554.3,0.0,3417.7,1665.3,2125.0,3424.9,3418.9,699.5,1411.3,967.1,545.8,1233.7,2284.8,3428.6,3432.2,863.7,947.5,1465.4,2052.4,1757.0,1054.8,1.0,-321.0,-45.0,10976.0,1716.0,-734.0,-12020.0,3524.0,133.0,146.0,97.0,-213.0,-52.0,10999.0,1292.0,187.0,-12073.0,3487.0,431.0,255.0,1.0
2022-05-23 16:22:47.355032-07:00,2052.4,632.7,1680.5,1768.5,1229.3,1278.3,1413.1,1605.8,3429.8,3427.4,1987.5,1554.3,0.0,3417.7,1665.3,2125.0,3424.9,3418.9,699.5,1399.4,967.1,549.0,1226.6,2284.8,3428.6,3432.2,863.7,945.8,1465.4,1950.9,1632.2,1047.0,58.0,-261.0,-100.0,10782.0,2944.0,-2063.0,-11801.0,4880.0,77.0,272.0,158.0,-227.0,-127.0,10904.0,2641.0,-977.0,-11899.0,4449.0,629.0,414.0,1.0
2022-05-23 16:22:47.414461-07:00,2052.4,632.7,1680.5,1723.4,1229.3,1299.8,1419.5,1604.0,3429.8,3427.4,1987.5,1515.3,0.0,3434.6,1558.1,2046.4,3429.8,3420.1,704.4,1399.4,970.5,549.0,1226.6,2284.8,3433.4,3418.9,919.4,945.8,1456.2,1950.9,1632.2,1047.0,41.0,-293.0,-177.0,10297.0,4493.0,-3787.0,-11308.0,6608.0,21.0,106.0,-37.0,-94.0,-364.0,10617.0,4328.0,-2302.0,-11475.0,5303.0,1082.0,436.0,1.0
2022-05-23 16:22:47.474512-07:00,2052.4,650.5,1582.4,1723.4,1211.5,1299.8,1419.5,1604.0,3418.9,3431.0,1919.3,1515.3,0.0,3434.6,1558.1,2046.4,3429.8,3420.1,704.4,1412.2,970.5,556.2,1219.5,2229.1,3433.4,3418.9,919.4,963.7,1456.2,1880.1,1574.9,1040.9,30.0,33.0,-419.0,9562.0,6247.0,-5494.0,-10382.0,5074.0,1058.0,439.0,-70.0,38.0,-178.0,10261.0,5835.0,-3431.0,-10832.0,3775.0,891.0,668.0,1.0
2022-05-23 16:22:47.504492-07:00,2052.4,650.5,1582.4,1675.7,1206.2,1302.5,1412.2,1564.6,3418.9,3431.0,1919.3,1497.7,0.0,3427.4,1421.3,1943.0,3422.5,3420.1,717.5,1413.1,977.3,556.2,1219.5,2229.1,3423.7,3423.7,945.8,966.2,1436.0,1880.1,1574.9,1040.9,22.0,61.0,-270.0,9050.0,7460.0,-6428.0,-9464.0,3320.0,740.0,307.0,-88.0,61.0,-120.0,9981.0,6816.0,-4251.0,-10212.0,2818.0,542.0,654.0,1.0
2022-05-23 16:22:47.594566-07:00,2126.0,668.4,1525.5,1657.7,1206.2,1302.5,1412.2,1564.6,3418.9,3428.6,1885.0,1493.0,0.0,3427.4,1421.3,1943.0,3422.5,3420.1,717.5,1413.1,977.3,561.8,1217.7,2176.9,3423.7,3423.7,945.8,966.2,1441.5,1829.4,1519.0,1046.1,67.0,75.0,-158.0,8641.0,8243.0,-7049.0,-8726.0,2523.0,624.0,343.0,-51.0,134.0,-81.0,9695.0,7505.0,-4917.0,-9692.0,2391.0,256.0,478.0,1.0
2022-05-23 16:22:47.654502-07:00,2126.0,668.4,1525.5,1657.7,1181.5,1294.5,1396.7,1563.7,3418.9,3428.6,1885.0,1493.0,0.0,3429.8,1355.8,1899.7,3426.2,3417.7,727.4,1407.6,977.3,561.8,1217.7,2176.9,3429.8,3433.4,933.0,971.3,1441.5,1829.4,1519.0,1046.1,40.0,174.0,-138.0,8313.0,8802.0,-7510.0,-8090.0,1655.0,304.0,395.0,-35.0,151.0,0.0,9422.0,7989.0,-5460.0,-9274.0,1639.0,117.0,403.0,1.0
2022-05-23 16:22:47.656038-07:00,2171.8,662.7,1479.2,1629.4,1181.5,1294.5,1396.7,1563.7,3420.1,3423.7,1811.0,1468.1,0.0,3429.8,1355.8,1899.7,3426.2,3417.7,727.4,1407.6,966.2,562.6,1204.4,2145.3,3429.8,3433.4,933.0,971.3,1428.6,1807.1,1487.5,1043.5,2.0,133.0,-78.0,8148.0,9036.0,-7814.0,-7703.0,782.0,26.0,298.0,-43.0,57.0,29.0,9281.0,8228.0,-5800.0,-8998.0,881.0,0.0,346.0,1.0
2022-05-23 16:22:47.715060-07:00,2171.8,662.7,1479.2,1629.4,1178.8,1278.3,1404.9,1544.1,3420.1,3423.7,1811.0,1468.1,0.0,3427.4,1326.8,1862.5,3427.4,3422.5,739.7,1400.3,966.2,562.6,1204.4,2145.3,3432.2,3418.9,932.2,959.4,1428.6,1807.1,1487.5,1043.5,19.0,113.0,5.0,8002.0,9154.0,-8011.0,-7512.0,646.0,68.0,12.0,-43.0,54.0,54.0,9179.0,8361.0,-6022.0,-8833.0,595.0,-10.0,189.0,1.0
2022-05-23 16:22:47.774643-07:00,2187.1,665.2,1457.1,1606.8,1178.8,1278.3,1404.9,1544.1,3426.2,3429.8,1772.3,1447.9,0.0,3427.4,1326.8,1862.5,3427.4,3422.5,739.7,1400.3,962.8,559.4,1200.0,2132.1,3432.2,3418.9,932.2,959.4,1416.7,1782.9,1473.6,1044.4,1.0,33.0,42.0,7886.0,9287.0,-8079.0,-7397.0,396.0,148.0,-72.0,-30.0,5.0,75.0,9141.0,8417.0,-6141.0,-8737.0,302.0,17.0,172.0,1.0
2022-05-23 16:22:47.804476-07:00,2183.0,665.2,1457.1,1606.8,1172.6,1281.0,1387.5,1536.6,3429.8,3429.8,1772.3,1447.9,0.0,3431.0,1321.4,1853.7,3427.4,3422.5,729.9,1395.7,962.8,559.4,1200.0,2112.8,3422.5,3431.0,914.4,962.8,1416.7,1782.9,1473.6,1043.5,-1.0,22.0,33.0,7811.0,9420.0,-8112.0,-7271.0,516.0,225.0,12.0,-18.0,-12.0,79.0,9127.0,8464.0,-6211.0,-8655.0,392.0,77.0,154.0,1.0
2022-05-23 16:22:47.894549-07:00,2183.0,660.3,1435.0,1604.0,1172.6,1281.0,1387.5,1523.6,3429.8,3418.9,1757.9,1444.2,0.0,3431.0,1321.4,1845.9,3422.5,3422.5,729.9,1395.7,962.0,569.8,1185.9,2112.8,3424.9,3431.0,914.4,962.8,1416.7,1771.4,1470.0,1043.5,-32.0,92.0,-2.0,7709.0,9577.0,-8180.0,-7099.0,409.0,128.0,12.0,-55.0,59.0,84.0,9084.0,8557.0,-6282.0,-8557.0,411.0,107.0,87.0,1.0
2022-05-23 16:22:47.984437-07:00,2179.9,660.3,1435.0,1604.0,1158.6,1276.5,1377.5,1523.6,3423.7,3418.9,1757.9,1444.2,0.0,3418.9,1302.5,1845.9,3422.5,3414.1,736.5,1388.5,962.0,569.8,1185.9,2099.7,3424.9,3427.4,909.3,991.0,1416.7,1771.4,1470.0,1040.1,-10.0,55.0,-27.0,7704.0,9612.0,-8212.0,-7017.0,-94.0,37.0,185.0,-51.0,36.0,42.0,9080.0,8602.0,-6320.0,-8489.0,39.0,49.0,107.0,1.0
2022-05-23 16:22:48.015109-07:00,2179.9,657.9,1429.5,1594.6,1158.6,1276.5,1377.5,1527.3,3423.7,3424.9,1740.6,1436.0,0.0,3418.9,1302.5,1829.4,3422.5,3414.1,736.5,1388.5,951.7,566.6,1185.0,2099.7,3429.8,3427.4,909.3,991.0,1410.3,1768.5,1448.8,1040.1,17.0,46.0,-7.0,7745.0,9571.0,-8241.0,-6995.0,67.0,-12.0,62.0,-30.0,20.0,32.0,9084.0,8607.0,-6353.0,-8454.0,119.0,2.0,54.0,1.0
2022-05-23 16:22:48.016124-07:00,2173.8,657.9,1429.5,1594.6,1162.1,1274.7,1363.0,1527.3,3426.2,3424.9,1740.6,1436.0,0.0,3426.2,1307.0,1829.4,3422.5,3427.4,734.0,1384.8,951.7,566.6,1185.0,2087.6,3429.8,3433.4,897.4,964.5,1410.3,1768.5,1448.8,1034.9,5.0,-16.0,6.0,7738.0,9554.0,-8268.0,-6994.0,17.0,-116.0,33.0,-29.0,-11.0,38.0,9081.0,8611.0,-6361.0,-8448.0,10.0,-9.0,23.0,1.0
2022-05-23 16:22:48.074548-07:00,2173.8,653.0,1414.9,1589.9,1162.1,1274.7,1361.2,1525.5,3426.2,3417.7,1732.0,1434.1,0.0,3426.2,1297.2,1827.5,3416.5,3426.2,734.0,1384.8,952.6,563.4,1176.2,2087.6,3428.6,3429.8,897.4,964.5,1410.3,1756.0,1450.6,1034.9,22.0,13.0,11.0,7701.0,9541.0,-8299.0,-7017.0,54.0,-126.0,-47.0,-25.0,0.0,29.0,9084.0,8601.0,-6355.0,-8459.0,-11.0,-20.0,-2.0,1.0
2022-05-23 16:22:48.104588-07:00,2156.5,639.2,1414.9,1589.9,1154.2,1271.2,1361.2,1525.5,3422.5,3435.8,1732.0,1434.1,0.0,3418.9,1297.2,1827.5,3416.5,3426.2,738.9,1381.2,952.6,563.4,1180.6,2077.5,3428.6,3429.8,888.2,962.0,1410.3,1756.0,1445.1,1046.1,20.0,16.0,14.0,7673.0,9538.0,-8307.0,-7042.0,-24.0,-46.0,-39.0,-25.0,19.0,30.0,9087.0,8585.0,-6339.0,-8484.0,-58.0,-27.0,-11.0,1.0
2022-05-23 16:22:48.164541-07:00,2156.5,639.2,1413.1,1579.6,1154.2,1271.2,1342.2,1503.2,3422.5,3435.8,1727.2,1429.5,0.0,3418.9,1294.5,1820.7,3421.3,3422.5,738.9,1381.2,946.6,562.6,1180.6,2077.5,3421.3,3422.5,888.2,962.0,1410.3,1755.0,1445.1,1046.1,22.0,-12.0,6.0,7689.0,9507.0,-8304.0,-7070.0,-65.0,-95.0,22.0,-5.0,-26.0,31.0,9095.0,8563.0,-6326.0,-8507.0,-22.0,-33.0,-17.0,1.0
2022-05-23 16:22:48.224618-07:00,2151.4,649.7,1413.1,1579.6,1140.1,1260.4,1342.2,1503.2,3426.2,3435.8,1727.2,1429.5,0.0,3423.7,1294.5,1820.7,3421.3,3422.5,731.5,1383.0,946.6,562.6,1177.0,2077.5,3421.3,3422.5,874.7,960.2,1410.3,1755.0,1440.5,1039.2,24.0,21.0,29.0,7672.0,9475.0,-8334.0,-7096.0,-19.0,-108.0,9.0,-5.0,17.0,33.0,9090.0,8551.0,-6325.0,-8526.0,-39.0,-48.0,-12.0,1.0
2022-05-23 16:22:48.255069-07:00,2151.4,649.7,1412.2,1588.0,1140.1,1260.4,1336.8,1494.9,3426.2,3435.8,1717.7,1429.5,0.0,3423.7,1281.0,1810.0,3424.9,3418.9,731.5,1383.0,947.5,564.2,1177.0,2077.5,3427.4,3422.5,874.7,960.2,1398.5,1749.3,1440.5,1039.2,24.0,-32.0,40.0,7704.0,9418.0,-8332.0,-7138.0,-147.0,-74.0,38.0,5.0,-47.0,40.0,9109.0,8518.0,-6307.0,-8552.0,-73.0,-11.0,2.0,1.0
2022-05-23 16:22:48.314492-07:00,2131.1,641.6,1399.4,1588.0,1147.1,1267.6,1336.8,1494.9,3429.8,3424.9,1717.7,1429.5,0.0,3429.8,1281.0,1810.0,3424.9,3418.9,731.5,1380.3,947.5,562.6,1172.6,2057.4,3427.4,3422.5,878.0,956.8,1398.5,1743.5,1437.8,1036.6,28.0,-7.0,54.0,7715.0,9377.0,-8352.0,-7157.0,13.0,-61.0,40.0,16.0,-7.0,46.0,9125.0,8514.0,-6285.0,-8554.0,3.0,87.0,-22.0,1.0
2022-05-23 16:22:48.344748-07:00,2131.1,641.6,1399.4,1576.8,1147.1,1268.5,1327.8,1481.0,3429.8,3424.9,1717.7,1423.1,0.0,3431.0,1281.0,1809.0,3432.2,3424.9,729.9,1380.3,943.2,562.6,1172.6,2057.4,3428.6,3432.2,871.3,956.8,1401.2,1743.5,1437.8,1036.6,44.0,-21.0,29.0,7764.0,9330.0,-8367.0,-7148.0,13.0,35.0,79.0,-5.0,-39.0,16.0,9149.0,8540.0,-6250.0,-8528.0,67.0,144.0,8.0,1.0
2022-05-23 16:22:48.404559-07:00,2138.2,642.4,1394.8,1576.8,1148.0,1268.5,1327.8,1481.0,3428.6,3423.7,1716.7,1423.1,0.0,3431.0,1281.0,1809.0,3432.2,3424.9,729.9,1371.2,943.2,558.6,1183.2,2058.4,3428.6,3432.2,871.3,956.8,1401.2,1738.7,1438.7,1028.0,0.0,15.0,-15.0,7786.0,9361.0,-8359.0,-7094.0,47.0,153.0,-7.0,-21.0,15.0,35.0,9153.0,8582.0,-6240.0,-8489.0,35.0,86.0,14.0,1.0
2022-05-23 16:22:48.464526-07:00,2138.2,642.4,1394.8,1580.5,1148.0,1253.3,1318.7,1490.3,3428.6,3423.7,1716.7,1423.1,0.0,3428.6,1281.9,1800.3,3421.3,3423.7,731.5,1371.2,939.0,558.6,1183.2,2058.4,3434.6,3429.8,867.9,956.8,1406.7,1738.7,1438.7,1028.0,12.0,11.0,-7.0,7819.0,9355.0,-8344.0,-7081.0,-80.0,16.0,60.0,-26.0,6.0,27.0,9169.0,8580.0,-6227.0,-8483.0,-27.0,4.0,33.0,1.0
2022-05-23 16:22:48.524581-07:00,2135.1,640.8,1393.0,1580.5,1139.2,1253.3,1318.7,1490.3,3428.6,3423.7,1714.8,1423.1,0.0,3428.6,1281.9,1800.3,3421.3,3423.7,731.5,1375.7,939.0,558.6,1176.2,2061.5,3434.6,3429.8,867.9,957.7,1406.7,1741.6,1422.2,1033.2,4.0,30.0,7.0,7837.0,9348.0,-8338.0,-7080.0,16.0,18.0,-46.0,-17.0,7.0,34.0,9178.0,8571.0,-6220.0,-8488.0,-12.0,-1.0,8.0,1.0
2022-05-23 16:22:48.554934-07:00,2135.1,640.8,1393.0,1573.0,1139.2,1254.2,1299.8,1473.6,3428.6,3423.7,1714.8,1415.8,0.0,3428.6,1280.1,1801.3,3426.2,3429.8,737.3,1375.7,946.6,558.6,1176.2,2061.5,3433.4,3417.7,867.1,957.7,1400.3,1741.6,1422.2,1033.2,0.0,3.0,6.0,7835.0,9351.0,-8322.0,-7097.0,-70.0,-16.0,-19.0,-20.0,4.0,33.0,9190.0,8562.0,-6204.0,-8496.0,-57.0,21.0,-14.0,1.0
2022-05-23 16:22:48.614191-07:00,2129.0,634.3,1383.9,1566.5,1144.5,1254.2,1299.8,1473.6,3429.8,3429.8,1728.2,1414.9,0.0,3428.6,1280.1,1801.3,3426.2,3429.8,737.3,1371.2,942.4,561.0,1182.3,2044.4,3433.4,3417.7,867.1,951.7,1395.7,1729.1,1422.2,1031.4,34.0,42.0,18.0,7833.0,9344.0,-8324.0,-7105.0,48.0,0.0,-34.0,-11.0,-4.0,13.0,9200.0,8574.0,-6177.0,-8493.0,-31.0,94.0,-16.0,1.0
2022-05-23 16:22:48.674134-07:00,2129.0,634.3,1383.9,1566.5,1127.0,1256.0,1301.6,1467.2,3429.8,3429.8,1728.2,1414.9,0.0,3423.7,1281.9,1799.4,3423.7,3427.4,731.5,1373.9,942.4,561.0,1182.3,2044.4,3429.8,3434.6,869.6,960.2,1395.7,1729.1,1422.2,1031.4,6.0,-15.0,-15.0,7862.0,9358.0,-8240.0,-7153.0,-343.0,91.0,-202.0,-12.0,0.0,28.0,9265.0,8531.0,-6096.0,-8524.0,-360.0,49.0,-19.0,1.0
2022-05-23 16:22:48.734418-07:00,2125.0,631.9,1377.5,1570.2,1127.0,1256.0,1301.6,1467.2,3433.4,3424.9,1701.4,1411.3,0.0,3423.7,1281.9,1799.4,3423.7,3427.4,731.5,1373.9,946.6,563.4,1181.5,2047.4,3429.8,3434.6,869.6,960.2,1393.9,1724.4,1420.4,1021.1,1.0,-52.0,-6.0,7904.0,9329.0,-8171.0,-7223.0,-107.0,-44.0,-1.0,-18.0,-27.0,26.0,9317.0,8479.0,-6035.0,-8562.0,-96.0,-1.0,-8.0,1.0
2022-05-23 16:22:48.855499-07:00,2125.0,631.9,1377.5,1570.2,1128.7,1260.4,1289.1,1446.0,3433.4,3424.9,1701.4,1411.3,0.0,3418.9,1278.3,1786.8,3418.9,3420.1,725.8,1364.8,946.6,563.4,1181.5,2047.4,3429.8,3424.9,867.1,958.5,1393.9,1724.4,1420.4,1021.1,11.0,27.0,6.0,7893.0,9305.0,-8217.0,-7215.0,89.0,-66.0,98.0,-18.0,3.0,25.0,9306.0,8486.0,-6041.0,-8564.0,94.0,-18.0,0.0,1.0
2022-05-23 16:22:48.857511-07:00,2145.3,624.6,1384.8,1559.9,1128.7,1260.4,1289.1,1446.0,3420.1,3427.4,1690.0,1412.2,0.0,3418.9,1278.3,1786.8,3418.9,3420.1,725.8,1364.8,936.4,557.8,1177.0,2041.4,3429.8,3424.9,867.1,958.5,1391.2,1724.4,1423.1,1028.8,-1.0,87.0,-3.0,7890.0,9301.0,-8229.0,-7209.0,-63.0,16.0,-75.0,-41.0,32.0,34.0,9289.0,8495.0,-6047.0,-8568.0,-50.0,-4.0,-48.0,1.0
2022-05-23 16:22:48.858532-07:00,2122.0,624.6,1384.8,1559.9,1136.6,1268.5,1299.0,1456.2,3433.4,3427.4,1690.0,1412.2,0.0,3423.7,1276.5,1794.5,3432.2,3427.4,729.0,1364.8,936.4,557.8,1177.0,2043.4,3423.7,3426.2,878.0,958.5,1391.2,1724.4,1423.1,1035.7,-103.0,247.0,-46.0,7910.0,9305.0,-8106.0,-7319.0,-609.0,11.0,-451.0,-133.0,150.0,69.0,9359.0,8427.0,-5924.0,-8645.0,-911.0,134.0,-140.0,1.0
2022-05-23 16:22:49.034608-07:00,2122.0,626.2,1386.6,1565.5,1136.6,1268.5,1299.0,1479.2,3433.4,3432.2,1713.8,1413.1,0.0,3423.7,1276.5,1788.7,3421.3,3427.4,729.0,1364.8,934.7,558.6,1183.2,2043.4,3427.4,3426.2,878.0,958.5,1401.2,1730.1,1425.0,1035.7,4.0,700.0,-242.0,8228.0,9126.0,-7276.0,-8032.0,-3503.0,258.0,-2040.0,-119.0,401.0,52.0,9828.0,7889.0,-5221.0,-9074.0,-3423.0,95.0,-626.0,1.0
2022-05-23 16:22:49.035972-07:00,2190.1,626.2,1386.6,1565.5,1137.5,1264.0,1313.3,1479.2,3431.0,3432.2,1713.8,1413.1,0.0,3421.3,1277.4,1788.7,3421.3,3421.3,724.9,1367.6,934.7,558.6,1183.2,2035.4,3427.4,3439.5,882.3,969.6,1401.2,1730.1,1425.0,1029.7,40.0,352.0,-253.0,8547.0,8687.0,-5713.0,-9343.0,-4145.0,-235.0,-3078.0,-91.0,224.0,14.0,10414.0,6893.0,-3982.0,-9830.0,-4558.0,39.0,-1089.0,1.0
2022-05-23 16:22:49.036900-07:00,2190.1,631.9,1504.1,1588.9,1137.5,1264.0,1313.3,1707.2,3431.0,3423.7,1728.2,1409.4,0.0,3421.3,1277.4,1791.6,3427.4,3421.3,724.9,1367.6,932.2,561.0,1239.1,2035.4,3428.6,3439.5,882.3,969.6,1397.6,1754.1,1458.9,1029.7,97.0,38.0,-336.0,8630.0,7960.0,-3995.0,-10707.0,-4469.0,-699.0,-2883.0,-51.0,61.0,-44.0,10922.0,5589.0,-2473.0,-10573.0,-5017.0,-104.0,-1144.0,1.0
2022-05-23 16:22:49.184441-07:00,2197.3,631.9,1504.1,1588.9,1140.1,1277.4,1484.7,1707.2,3423.7,3423.7,1728.2,1409.4,0.0,3433.4,1277.4,1791.6,3427.4,3418.9,718.4,1368.5,932.2,561.0,1239.1,2029.4,3428.6,3423.7,872.1,973.9,1397.6,1754.1,1458.9,1032.3,70.0,-312.0,-365.0,8672.0,6837.0,-2705.0,-11797.0,-3624.0,-1855.0,-1548.0,2.0,-35.0,-157.0,11185.0,4263.0,-1044.0,-11138.0,-4234.0,-126.0,-1091.0,1.0
2022-05-23 16:22:49.185716-07:00,2197.3,624.6,1540.3,1602.1,1140.1,1277.4,1484.7,1689.1,3423.7,3418.9,1721.5,1406.7,0.0,3433.4,1277.4,1811.9,3424.9,3418.9,718.4,1368.5,938.1,562.6,1242.6,2029.4,3432.2,3423.7,872.1,973.9,1380.3,1768.5,1512.5,1032.3,139.0,-517.0,-306.0,8810.0,5482.0,-2244.0,-12479.0,-2117.0,-2472.0,26.0,30.0,-265.0,-275.0,11200.0,3294.0,-134.0,-11495.0,-2228.0,-302.0,-915.0,1.0
2022-05-23 16:22:49.186640-07:00,2160.5,631.9,1540.3,1602.1,1124.4,1270.3,1473.6,1689.1,3435.8,3427.4,1721.5,1406.7,0.0,3426.2,1347.6,1811.9,3424.9,3417.7,718.4,1362.1,938.1,562.6,1239.1,2028.4,3432.2,3431.0,872.1,969.6,1380.3,1768.5,1541.3,1031.4,54.0,-110.0,-260.0,9174.0,4184.0,-2158.0,-12733.0,-2898.0,-2325.0,958.0,90.0,87.0,-149.0,11135.0,2565.0,414.0,-11735.0,-2429.0,-594.0,-669.0,1.0
2022-05-23 16:22:49.214322-07:00,2160.5,631.9,1583.3,1634.1,1124.4,1270.3,1408.5,1623.7,3435.8,3427.4,1701.4,1403.0,0.0,3426.2,1454.3,1861.5,3411.7,3423.7,718.4,1362.1,944.1,576.2,1239.1,2028.4,3422.5,3429.8,872.1,969.6,1394.8,1798.4,1541.3,1031.4,183.0,-321.0,-162.0,9831.0,2142.0,-1604.0,-12831.0,-4135.0,-2855.0,1604.0,83.0,-49.0,-235.0,11125.0,1378.0,1073.0,-11900.0,-2802.0,-1031.0,-462.0,1.0
2022-05-23 16:22:49.244176-07:00,2144.3,627.0,1583.3,1634.1,1140.1,1267.6,1408.5,1623.7,3422.5,3431.0,1701.4,1403.0,0.0,3422.5,1454.3,1861.5,3411.7,3423.7,723.3,1383.9,944.1,576.2,1239.1,2028.4,3422.5,3429.8,844.4,973.9,1394.8,1798.4,1610.5,1021.9,202.0,-33.0,54.0,10406.0,574.0,-1149.0,-12590.0,-2726.0,-1453.0,1381.0,140.0,-58.0,-79.0,11067.0,500.0,1556.0,-11970.0,-1850.0,-576.0,-466.0,1.0
2022-05-23 16:22:49.365315-07:00,2144.3,627.0,1668.2,1658.7,1140.1,1267.6,1365.7,1550.6,3422.5,3431.0,1680.5,1401.2,0.0,3422.5,1456.2,1848.9,3426.2,3416.5,723.3,1383.9,969.6,577.0,1239.1,2028.4,3418.9,3429.8,844.4,973.9,1386.6,1844.0,1610.5,1021.9,81.0,-79.0,39.0,10701.0,-575.0,-588.0,-12379.0,-2473.0,-980.0,852.0,82.0,-47.0,-46.0,10935.0,-189.0,1950.0,-12042.0,-1548.0,-428.0,-485.0,1.0
2022-05-23 16:22:49.394454-07:00,2111.8,634.3,1668.2,1658.7,1125.2,1242.6,1365.7,1550.6,3429.8,3421.3,1680.5,1401.2,0.0,3426.2,1456.2,1848.9,3426.2,3416.5,724.9,1404.0,969.6,577.0,1230.2,2031.4,3418.9,3429.8,837.7,965.4,1386.6,1844.0,1609.6,1025.4,34.0,29.0,-75.0,10877.0,-1388.0,-161.0,-12172.0,-1769.0,-749.0,606.0,46.0,-34.0,-33.0,10786.0,-678.0,2245.0,-12108.0,-1078.0,-329.0,-528.0,1.0
2022-05-23 16:22:49.425796-07:00,2111.8,634.3,1669.1,1645.4,1125.2,1232.8,1458.0,1451.6,3429.8,3421.3,1675.7,1400.3,0.0,3423.7,1426.8,1838.2,3426.2,3426.2,717.5,1404.0,987.6,576.2,1230.2,2031.4,3428.6,3432.2,832.7,965.4,1390.3,1849.8,1609.6,1025.4,16.0,-46.0,-8.0,10986.0,-2157.0,152.0,-11961.0,-1642.0,-983.0,594.0,56.0,-53.0,15.0,10629.0,-1081.0,2413.0,-12185.0,-734.0,-380.0,-441.0,1.0
2022-05-23 16:22:49.454780-07:00,2075.5,631.1,1711.0,1645.4,1121.7,1232.8,1458.0,1451.6,3428.6,3416.5,1663.4,1400.3,0.0,3423.7,1426.8,1838.2,3426.2,3426.2,717.5,1441.5,987.6,577.8,1223.9,2023.4,3428.6,3432.2,832.7,950.9,1390.3,1827.5,1601.1,1034.0,15.0,17.0,2.0,11140.0,-2861.0,219.0,-11666.0,-967.0,-1197.0,708.0,35.0,-72.0,-35.0,10532.0,-1312.0,2452.0,-12238.0,-280.0,-286.0,-292.0,1.0
2022-05-23 16:22:49.514480-07:00,2075.5,631.1,1711.0,1658.7,1121.7,1239.9,1396.7,1383.0,3428.6,3416.5,1663.4,1397.6,0.0,3431.0,1401.2,1825.5,3420.1,3418.9,727.4,1441.5,1015.1,577.8,1223.9,2023.4,3427.4,3424.9,828.5,950.9,1390.3,1827.5,1601.1,1034.0,45.0,27.0,55.0,11204.0,-3455.0,353.0,-11439.0,-1240.0,-614.0,423.0,67.0,-15.0,-38.0,10428.0,-1591.0,2523.0,-12280.0,-772.0,-346.0,-333.0,1.0
2022-05-23 16:22:49.544587-07:00,2061.5,637.6,1711.0,1658.7,1127.0,1239.9,1396.7,1383.0,3423.7,3418.9,1649.2,1397.6,0.0,3431.0,1401.2,1825.5,3420.1,3418.9,727.4,1476.4,1015.1,576.2,1220.4,2011.4,3427.4,3424.9,828.5,955.1,1390.3,1843.0,1610.5,1034.9,-20.0,18.0,-113.0,11115.0,-4082.0,618.0,-11307.0,-1509.0,-879.0,-63.0,59.0,-86.0,6.0,10265.0,-1985.0,2675.0,-12327.0,-782.0,-417.0,-537.0,1.0
2022-05-23 16:22:49.605038-07:00,2061.5,637.6,1711.0,1650.2,1127.0,1263.1,1388.5,1350.3,3423.7,3418.9,1649.2,1389.4,0.0,3428.6,1412.2,1824.6,3420.1,3424.9,720.0,1476.4,1045.2,576.2,1220.4,2011.4,3426.2,3423.7,820.2,955.1,1393.0,1843.0,1610.5,1034.9,10.0,-25.0,29.0,10956.0,-4696.0,613.0,-11223.0,-776.0,-913.0,-185.0,42.0,-51.0,-22.0,10104.0,-2254.0,2691.0,-12410.0,-220.0,-355.0,-440.0,1.0
2022-05-23 16:22:49.664459-07:00,2054.4,625.4,1653.9,1639.8,1125.2,1263.1,1388.5,1350.3,3423.7,3429.8,1655.8,1397.6,0.0,3428.6,1412.2,1824.6,3420.1,3424.9,720.0,1499.5,1047.0,577.8,1241.7,2002.5,3426.2,3423.7,820.2,955.1,1393.0,1852.8,1610.5,1034.9,-7.0,-8.0,28.0,10808.0,-5109.0,605.0,-11187.0,-641.0,-523.0,-275.0,35.0,-70.0,-37.0,9989.0,-2479.0,2625.0,-12474.0,-190.0,-432.0,-359.0,1.0
2022-05-23 16:22:49.695053-07:00,2054.4,625.4,1653.9,1639.8,1124.4,1260.4,1396.7,1332.3,3423.7,3429.8,1655.8,1397.6,0.0,3432.2,1449.7,1829.4,3418.9,3422.5,722.5,1490.3,1047.0,577.8,1241.7,2002.5,3424.9,3427.4,817.7,947.5,1393.0,1852.8,1610.5,1034.9,-40.0,-14.0,114.0,10728.0,-5246.0,602.0,-11201.0,-152.0,-8.0,9.0,-12.0,-15.0,-29.0,9952.0,-2660.0,2547.0,-12483.0,-151.0,-393.0,-33.0,1.0
2022-05-23 16:22:49.755630-07:00,2048.4,633.5,1788.7,1740.6,1124.4,1260.4,1396.7,1332.3,3428.6,3429.8,1740.6,1413.1,0.0,3432.2,1449.7,1829.4,3418.9,3422.5,722.5,1490.3,1046.1,574.6,1237.3,2027.4,3424.9,3427.4,817.7,947.5,1409.4,1966.7,1717.7,1036.6,-3.0,-56.0,10.0,10715.0,-5296.0,610.0,-11190.0,126.0,-138.0,-39.0,38.0,-44.0,-8.0,9984.0,-2792.0,2460.0,-12446.0,92.0,-349.0,48.0,1.0
2022-05-23 16:22:49.814454-07:00,2048.4,633.5,1788.7,1740.6,1143.6,1270.3,1481.9,1425.9,3428.6,3429.8,1740.6,1413.1,0.0,3421.3,1587.1,1958.8,3429.8,3415.3,716.7,1470.9,1046.1,574.6,1237.3,2027.4,3433.4,3427.4,826.0,956.8,1409.4,1966.7,1717.7,1036.6,-18.0,145.0,13.0,10771.0,-5183.0,531.0,-11192.0,350.0,353.0,-48.0,-2.0,-1.0,-58.0,10065.0,-2778.0,2334.0,-12409.0,312.0,-183.0,165.0,1.0
2022-05-23 16:22:49.844573-07:00,2039.4,620.5,1896.7,1827.5,1143.6,1270.3,1481.9,1425.9,3432.2,3421.3,2011.4,1514.3,0.0,3421.3,1587.1,1958.8,3429.8,3415.3,716.7,1470.9,1048.7,575.4,1235.5,2078.5,3433.4,3427.4,826.0,956.8,1445.1,2169.7,1868.4,1033.2,-17.0,50.0,-57.0,10785.0,-4954.0,578.0,-11280.0,192.0,339.0,-99.0,-29.0,-28.0,67.0,10142.0,-2751.0,2197.0,-12377.0,217.0,-144.0,136.0,1.0
2022-05-23 16:22:49.905417-07:00,2039.4,620.5,1896.7,1827.5,1230.2,1280.1,1591.7,1577.7,3432.2,3421.3,2011.4,1514.3,0.0,3422.5,1686.2,2144.3,3418.9,3431.0,717.5,1467.2,1048.7,575.4,1235.5,2078.5,3429.8,3422.5,830.2,951.7,1445.1,2169.7,1868.4,1033.2,-30.0,18.0,0.0,10811.0,-4848.0,543.0,-11303.0,203.0,-62.0,-5.0,7.0,-58.0,1.0,10231.0,-2718.0,2064.0,-12334.0,369.0,-111.0,216.0,1.0
2022-05-23 16:22:49.964856-07:00,2043.4,623.8,1887.9,1773.3,1230.2,1280.1,1591.7,1881.1,3427.4,3428.6,2118.9,1568.3,0.0,3422.5,1686.2,2172.8,3422.5,3431.0,717.5,1467.2,1031.4,572.2,1248.0,2202.4,3429.8,3422.5,830.2,951.7,1428.6,2175.8,1880.1,1023.7,-3.0,30.0,43.0,10828.0,-4828.0,372.0,-11303.0,421.0,-358.0,-214.0,17.0,-36.0,10.0,10344.0,-2577.0,1858.0,-12302.0,645.0,-169.0,193.0,1.0
2022-05-23 16:22:50.054483-07:00,2035.4,623.8,1887.9,1773.3,1259.6,1293.6,1722.4,1881.1,3437.0,3428.6,2118.9,1568.3,0.0,3423.7,1645.4,2172.8,3422.5,3424.9,718.4,1460.8,1031.4,572.2,1248.0,2203.4,3429.8,3429.8,844.4,956.0,1428.6,2175.8,1880.1,1026.3,16.0,149.0,12.0,10828.0,-4750.0,126.0,-11341.0,265.0,-27.0,-243.0,-6.0,57.0,-49.0,10434.0,-2454.0,1682.0,-12276.0,381.0,-29.0,115.0,1.0
2022-05-23 16:22:50.085036-07:00,2035.4,616.5,1860.6,1757.0,1259.6,1293.6,1722.4,1784.9,3437.0,3433.4,2105.8,1549.7,0.0,3423.7,1645.4,2162.6,3432.2,3424.9,718.4,1460.8,1028.8,569.8,1244.4,2203.4,3431.0,3429.8,844.4,956.0,1409.4,2143.3,1837.2,1026.3,-37.0,37.0,14.0,10768.0,-4766.0,2.0,-11392.0,332.0,-313.0,-347.0,-7.0,-96.0,4.0,10469.0,-2432.0,1556.0,-12267.0,417.0,-163.0,22.0,1.0
2022-05-23 16:22:50.144687-07:00,2053.4,616.5,1860.6,1757.0,1273.9,1287.3,1671.0,1784.9,3431.0,3433.4,2105.8,1549.7,0.0,3428.6,1609.6,2162.6,3432.2,3418.9,719.2,1453.4,1028.8,569.8,1244.4,2262.1,3431.0,3427.4,844.4,950.0,1409.4,2143.3,1837.2,1030.6,52.0,-9.0,61.0,10692.0,-4729.0,-192.0,-11477.0,169.0,159.0,-333.0,56.0,-2.0,-35.0,10492.0,-2375.0,1383.0,-12280.0,266.0,-115.0,-31.0,1.0
2022-05-23 16:22:50.147106-07:00,2053.4,625.4,1823.6,1752.1,1273.9,1287.3,1671.0,1697.6,3431.0,3431.0,2103.7,1559.0,0.0,3428.6,1609.6,2144.3,3423.7,3418.9,719.2,1453.4,1028.8,566.6,1240.8,2262.1,3428.6,3427.4,844.4,950.0,1404.0,2102.7,1801.3,1030.6,22.0,20.0,-13.0,10629.0,-4603.0,-251.0,-11585.0,349.0,203.0,-223.0,43.0,24.0,-28.0,10509.0,-2334.0,1299.0,-12282.0,183.0,-50.0,39.0,1.0
2022-05-23 16:22:50.264800-07:00,2098.7,614.9,1823.6,1752.1,1383.0,1286.4,1633.1,1697.6,3428.6,3427.4,2103.7,1559.0,0.0,3426.2,1584.2,2144.3,3423.7,3424.9,716.7,1455.2,1028.8,566.6,1249.7,2255.9,3428.6,3426.2,854.5,949.2,1404.0,2102.7,1775.2,1028.8,37.0,22.0,16.0,10627.0,-4447.0,-229.0,-11648.0,242.0,524.0,-101.0,49.0,-51.0,-31.0,10540.0,-2318.0,1332.0,-12255.0,-17.0,130.0,134.0,1.0
2022-05-23 16:22:50.266124-07:00,2098.7,614.9,1815.8,1779.1,1383.0,1286.4,1597.4,1628.4,3428.6,3427.4,2088.6,1562.7,0.0,3426.2,1569.3,2111.8,3424.9,3428.6,716.7,1455.2,1032.3,569.8,1249.7,2255.9,3427.4,3428.6,854.5,949.2,1393.9,2082.6,1775.2,1028.8,12.0,-71.0,-21.0,10610.0,-4207.0,-256.0,-11752.0,765.0,164.0,-305.0,61.0,-115.0,27.0,10582.0,-2203.0,1319.0,-12242.0,432.0,131.0,117.0,1.0
2022-05-23 16:22:50.294447-07:00,2064.5,614.1,1815.8,1779.1,1398.5,1281.0,1597.4,1628.4,3429.8,3426.2,2088.6,1562.7,0.0,3423.7,1569.3,2111.8,3424.9,3428.6,720.0,1456.2,1032.3,569.8,1250.6,2211.6,3427.4,3428.6,849.5,943.2,1393.9,2082.6,1767.5,1021.1,63.0,-67.0,9.0,10589.0,-3889.0,-499.0,-11872.0,973.0,388.0,-349.0,103.0,-32.0,-36.0,10659.0,-1959.0,1198.0,-12229.0,642.0,295.0,225.0,1.0
2022-05-23 16:22:50.354560-07:00,2064.5,614.1,1794.5,1814.9,1398.5,1281.0,1599.3,1625.6,3429.8,3426.2,2069.5,1552.5,0.0,3423.7,1561.8,2095.7,3416.5,3423.7,720.0,1456.2,1029.7,560.2,1250.6,2211.6,3429.8,3421.3,849.5,943.2,1392.1,2070.5,1767.5,1021.1,67.0,-142.0,-62.0,10627.0,-3457.0,-691.0,-11962.0,1129.0,687.0,54.0,131.0,-50.0,-107.0,10810.0,-1637.0,1137.0,-12149.0,619.0,532.0,614.0,1.0
2022-05-23 16:22:50.445214-07:00,2062.5,619.7,1794.5,1814.9,1421.3,1279.2,1599.3,1625.6,3420.1,3421.3,2069.5,1552.5,0.0,3424.9,1561.8,2095.7,3416.5,3423.7,715.1,1439.6,1029.7,560.2,1250.6,2209.6,3429.8,3421.3,843.6,937.3,1392.1,2070.5,1757.0,1021.9,-5.0,35.0,-183.0,10802.0,-2912.0,-895.0,-11936.0,1403.0,410.0,171.0,54.0,-42.0,-77.0,11061.0,-1206.0,1100.0,-11976.0,818.0,540.0,755.0,1.0
2022-05-23 16:22:50.447216-07:00,2062.5,619.7,1795.5,1824.6,1421.3,1279.2,1599.3,1672.9,3420.1,3421.3,2046.4,1549.7,0.0,3424.9,1544.1,2079.5,3416.5,3424.9,715.1,1439.6,1017.6,559.4,1250.6,2209.6,3424.9,3428.6,843.6,937.3,1384.8,2057.4,1757.0,1021.9,17.0,-53.0,-106.0,10931.0,-2390.0,-1226.0,-11905.0,1416.0,389.0,11.0,81.0,-37.0,-70.0,11287.0,-767.0,963.0,-11812.0,992.0,478.0,707.0,1.0
2022-05-23 16:22:50.504482-07:00,2034.4,610.0,1779.1,1824.6,1426.8,1268.5,1599.3,1672.9,3423.7,3420.1,2052.4,1549.7,0.0,3418.9,1544.1,2079.5,3416.5,3424.9,718.4,1442.4,1017.6,563.4,1245.3,2198.3,3424.9,3428.6,832.7,939.8,1384.8,2044.4,1748.3,1017.6,4.0,54.0,-62.0,11071.0,-1829.0,-1602.0,-11830.0,1704.0,450.0,120.0,22.0,-17.0,-105.0,11550.0,-252.0,749.0,-11594.0,1299.0,458.0,892.0,1.0
2022-05-23 16:22:50.564448-07:00,2034.4,610.0,1779.1,1834.3,1426.8,1273.0,1588.9,1687.2,3423.7,3420.1,2052.4,1554.3,0.0,3429.8,1536.6,2078.5,3417.7,3424.9,720.0,1442.4,1021.1,563.4,1245.3,2198.3,3434.6,3426.2,837.7,939.8,1373.0,2044.4,1748.3,1017.6,-28.0,15.0,-102.0,11164.0,-1068.0,-2049.0,-11767.0,2285.0,631.0,-53.0,-34.0,33.0,-69.0,11805.0,398.0,396.0,-11348.0,1843.0,474.0,902.0,1.0
2022-05-23 16:22:50.594611-07:00,2045.4,610.0,1775.2,1834.3,1415.8,1273.0,1588.9,1687.2,3429.8,3429.8,2058.4,1554.3,0.0,3429.8,1536.6,2078.5,3417.7,3424.9,720.0,1436.0,1021.1,563.4,1248.0,2185.0,3434.6,3426.2,837.7,941.5,1373.0,2051.4,1744.5,1017.6,-121.0,114.0,-130.0,11213.0,-168.0,-2653.0,-11646.0,2534.0,422.0,-171.0,-134.0,-1.0,-31.0,11985.0,1210.0,-133.0,-11105.0,2379.0,343.0,651.0,1.0
2022-05-23 16:22:50.654209-07:00,2045.4,610.0,1775.2,1846.9,1415.8,1273.0,1619.9,1712.9,3429.8,3429.8,2058.4,1538.5,0.0,3428.6,1543.1,2068.5,3422.5,3429.8,722.5,1436.0,1016.8,563.4,1248.0,2185.0,3429.8,3426.2,841.1,941.5,1373.9,2051.4,1744.5,1017.6,-59.0,201.0,-49.0,11152.0,725.0,-3275.0,-11524.0,2059.0,680.0,-342.0,-129.0,151.0,-98.0,12051.0,1897.0,-662.0,-10917.0,1639.0,171.0,410.0,1.0
2022-05-23 16:22:50.684638-07:00,2040.4,620.5,1771.4,1846.9,1431.4,1273.0,1619.9,1712.9,3429.8,3426.2,2055.4,1538.5,0.0,3428.6,1543.1,2068.5,3422.5,3429.8,722.5,1431.4,1016.8,558.6,1246.2,2193.2,3429.8,3426.2,841.1,935.6,1373.9,2042.4,1735.8,1023.7,-58.0,8.0,-30.0,11093.0,1445.0,-3593.0,-11419.0,1719.0,424.0,-105.0,-39.0,-42.0,56.0,12080.0,2301.0,-973.0,-10783.0,1576.0,156.0,430.0,1.0
2022-05-23 16:22:50.774667-07:00,2040.4,620.5,1771.4,1856.7,1451.6,1271.2,1650.2,1787.8,3429.8,3426.2,2055.4,1542.2,0.0,3426.2,1529.2,2075.5,3429.8,3409.3,720.8,1425.0,1009.0,558.6,1246.2,2193.2,3424.9,3424.9,836.1,941.5,1373.0,2042.4,1735.8,1023.7,6.0,17.0,10.0,10977.0,2134.0,-4030.0,-11276.0,1979.0,544.0,-379.0,-17.0,-6.0,-23.0,12074.0,2887.0,-1435.0,-10595.0,1807.0,191.0,322.0,1.0
2022-05-23 16:22:50.804370-07:00,2063.5,613.3,1766.6,1857.6,1451.6,1271.2,1650.2,1787.8,3423.7,3422.5,2037.4,1538.5,0.0,3426.2,1529.2,2075.5,3429.8,3409.3,720.8,1425.0,1006.5,558.6,1251.5,2177.9,3424.9,3424.9,836.1,941.5,1366.6,2031.4,1729.1,1020.2,-27.0,-19.0,-45.0,10812.0,2974.0,-4503.0,-11063.0,2380.0,515.0,-193.0,-28.0,-54.0,12.0,12023.0,3529.0,-1902.0,-10383.0,2107.0,248.0,355.0,1.0
